Time,II,PLETH
11:20:01.367,8.46,-168
11:20:01.367,8.46,7.76
11:20:01.367,-14.32,-76
11:20:01.367,-8.96,-75
11:20:01.367,-8.01,-74
11:20:01.367,-11.67,-74
11:20:01.367,-13.5,-74
11:20:01.367,-15.2,-73
11:20:01.367,11.75,-72
11:20:01.367,45.82,-71
11:20:01.367,-39.49,-72
11:20:01.367,-41.76,-71
11:20:01.367,-39.76,-70
11:20:01.367,163,1574
11:20:01.367,291.36,3796
11:20:01.414,267.72,4605
11:20:01.414,247.22,4738
11:20:01.414,224.18,4557
11:20:01.448,202.22,4245
11:20:01.448,182.64,3890
11:20:01.481,166.11,3535
11:20:01.515,149.83,3192
11:20:01.515,138.75,2876
11:20:01.548,133.12,2588
11:20:01.548,127.58,2326
11:20:01.596,115.23,2088
11:20:01.596,97.87,1874
11:20:01.633,87.41,1682
11:20:01.633,88.42,1507
11:20:01.681,141.31,1348
11:20:01.681,38.07,1208
11:20:01.715,26.99,1082
11:20:01.715,25.66,968
11:20:01.766,22.69,863
11:20:01.766,20.27,768
11:20:01.766,18.96,685
11:20:01.811,17.24,607
11:20:01.811,15.11,535
11:20:01.849,13.64,460
11:20:01.849,13.76,386
11:20:01.894,14.08,319
11:20:01.894,14.96,259
11:20:01.931,14.97,206
11:20:01.931,14.78,160
11:20:01.965,13.95,119
11:20:01.965,12.32,84
11:20:01.999,9.27,53
11:20:02.05,4.8,26
11:20:02.05,-0.94,4
11:20:02.05,-4.51,-12
11:20:02.101,-5.66,-26
11:20:02.101,-5.42,-35
11:20:02.151,-4.46,-40
11:20:02.151,-3.79,-43
11:20:02.151,-4.09,-44
11:20:02.201,-5.4,-44
11:20:02.201,-7.91,-44
11:20:02.251,-12.68,-45
11:20:02.251,-17.76,-46
11:20:02.251,-21.3,-46
11:20:02.3,-22.54,-45
11:20:02.3,-22.34,-44
11:20:02.351,-21.41,-43
11:20:02.351,-19.67,-43
11:20:02.351,-16.69,-45
11:20:02.401,-12.66,-47
11:20:02.401,-8.86,-48
11:20:02.451,-5.77,-49
11:20:02.451,-3.28,-50
11:20:02.451,-0.74,-51
11:20:02.501,2.73,-52
11:20:02.501,6.26,-54
11:20:02.549,12.72,-54
11:20:02.549,15.99,-56
11:20:02.549,12.78,-57
11:20:02.585,10.69,-58
11:20:02.634,10.81,-59
11:20:02.634,20.96,-59
11:20:02.634,86.05,-60
11:20:02.684,-22.64,-62
11:20:02.684,-16.52,-62
11:20:02.734,-15,-63
11:20:02.734,-13.7,-64
11:20:02.734,-12.37,-65
11:20:02.784,-11.26,-64
11:20:02.784,-10.57,-64
11:20:02.784,-9.32,-71
11:20:02.833,-8.09,-86
11:20:02.833,-6.91,-102
11:20:02.881,-4.91,-116
11:20:02.881,-1.65,-130
11:20:02.915,2.17,-142
11:20:02.915,5.59,-154
11:20:02.95,7.96,-164
11:20:02.95,8.78,-173
11:20:02.996,9.51,-178
11:20:02.996,9.93,-180
11:20:03.032,10.2,-180
11:20:03.032,11.23,-177
11:20:03.082,13.82,-171
11:20:03.082,18.22,-163
11:20:03.131,24.23,-155
11:20:03.131,29.2,-146
11:20:03.131,30.61,-139
11:20:03.181,29.59,-130
11:20:03.181,26.75,-122
11:20:03.226,22.66,-115
11:20:03.226,17.52,-107
11:20:03.226,13.36,-101
11:20:03.272,9.86,-96
11:20:03.272,8.12,-92
11:20:03.319,6.92,-88
11:20:03.319,6.27,-84
11:20:03.367,5.91,-81
11:20:03.367,5.44,-77
11:20:03.367,4.89,-76
11:20:03.413,4.26,-73
11:20:03.413,3.76,-71
11:20:03.46,4.03,-71
11:20:03.46,4.21,-69
11:20:03.507,5.22,-69
11:20:03.507,7.34,-68
11:20:03.507,7.24,-69
11:20:03.553,5.53,-70
11:20:03.553,3.93,-71
11:20:03.601,1.78,-72
11:20:03.601,45.22,-71
11:20:03.647,6.3,-69
11:20:03.647,-26.12,-69
11:20:03.647,-25.22,-68
11:20:03.694,-25.12,-68
11:20:03.694,-24.75,-68
11:20:03.731,-24.02,-69
11:20:03.731,-22.75,-71
11:20:03.765,-20.34,-75
11:20:03.765,-16.48,-86
11:20:03.8,-12.07,-101
11:20:03.848,-8.8,-116
11:20:03.848,-3.59,-130
11:20:03.848,1.6,-143
11:20:03.882,4.82,-153
11:20:03.917,6.71,-161
11:20:03.917,7.6,-168
11:20:03.951,6.11,-171
11:20:03.951,4.79,-174
11:20:04,3.61,-174
11:20:04,2.82,-172
11:20:04,2.6,-169
11:20:04.05,4.29,-164
11:20:04.05,7.63,-158
11:20:04.101,12.36,-151
11:20:04.101,14.96,-142
11:20:04.151,14.56,-133
11:20:04.151,13.12,-125
11:20:04.151,10.57,-117
11:20:04.196,7.82,-109
11:20:04.196,5.17,-102
11:20:04.231,3.12,-96
11:20:04.231,1.95,-90
11:20:04.266,1.31,-87
11:20:04.266,1.22,-83
11:20:04.3,1.4,-80
11:20:04.335,1.71,-78
11:20:04.335,1.95,-76
11:20:04.384,2.3,-74
11:20:04.384,2.77,-73
11:20:04.384,3.71,-70
11:20:04.434,5.06,-70
11:20:04.434,7.64,-69
11:20:04.485,12.87,-69
11:20:04.485,14.79,-70
11:20:04.485,11.7,-67
11:20:04.534,10.17,-67
11:20:04.534,9.03,-66
11:20:04.584,32.24,-67
11:20:04.584,69.8,-66
11:20:04.584,-19.15,-67
11:20:04.634,-12.67,-67
11:20:04.634,-11.04,-69
11:20:04.684,-10.15,-70
11:20:04.684,-9.41,-70
11:20:04.684,-7.82,-72
11:20:04.734,-6,-74
11:20:04.734,1.28,-82
11:20:04.784,9.36,-95
11:20:04.784,14.28,-111
11:20:04.784,14.65,-126
11:20:04.818,14.78,-139
11:20:04.866,13.22,-150
11:20:04.866,11.67,-159
11:20:04.866,9.9,-165
11:20:04.9,7.3,-169
11:20:04.933,4.23,-172
11:20:04.933,0.91,-174
11:20:04.967,-3.29,-174
11:20:04.967,-4.08,-173
11:20:05.016,-3,-167
11:20:05.016,-1.75,-160
11:20:05.051,0.31,-152
11:20:05.051,2.91,-144
11:20:05.085,4.44,-134
11:20:05.085,3.94,-125
11:20:05.134,2.54,-120
11:20:05.134,0.6,-112
11:20:05.184,-1.25,-105
11:20:05.184,-3.2,-100
11:20:05.184,-4.87,-96
11:20:05.233,-6.28,-91
11:20:05.233,-7.16,-88
11:20:05.285,-7.41,-83
11:20:05.285,-7.31,-82
11:20:05.285,-6.85,-81
11:20:05.334,-6.68,-79
11:20:05.334,-6.56,-77
11:20:05.384,-6.63,-75
11:20:05.384,-6.54,-75
11:20:05.384,-6.08,-75
11:20:05.434,-5.16,-74
11:20:05.434,-2.79,-74
11:20:05.485,-1.94,-75
11:20:05.485,-3.91,-75
11:20:05.485,-5.23,-75
11:20:05.534,-6.72,-74
11:20:05.534,32.33,-74
11:20:05.585,7.81,-75
11:20:05.585,-26.48,-73
11:20:05.585,-26.9,-74
11:20:05.634,-25.57,-75
11:20:05.634,-24.24,-75
11:20:05.684,-23.15,-74
11:20:05.684,-21.88,-75
11:20:05.684,-20.09,-79
11:20:05.733,-17.14,-89
11:20:05.733,-14.4,-103
11:20:05.784,-11.47,-120
11:20:05.784,-7.2,-135
11:20:05.784,-3.47,-147
11:20:05.835,-1.44,-157
11:20:05.835,-0.08,-165
11:20:05.88,0.64,-172
11:20:05.88,1.04,-178
11:20:05.88,1.54,-180
11:20:05.929,1.87,-181
11:20:05.929,3.16,-179
11:20:05.967,5.64,-178
11:20:05.967,9.77,-171
11:20:06.001,15.42,-163
11:20:06.001,21.19,-156
11:20:06.05,23.68,-146
11:20:06.05,23.82,-136
11:20:06.084,22.64,-128
11:20:06.084,20.35,-119
11:20:06.133,17.12,-112
11:20:06.133,13.86,-107
11:20:06.167,11.82,-102
11:20:06.167,11.89,-97
11:20:06.201,11.08,-94
11:20:06.201,9.72,-89
11:20:06.25,8.94,-87
11:20:06.25,8.69,-85
11:20:06.283,7.4,-82
11:20:06.283,5.99,-80
11:20:06.317,5.13,-78
11:20:06.351,4.82,-77
11:20:06.351,4.63,-76
11:20:06.4,4.71,-76
11:20:06.4,5.27,-74
11:20:06.45,6.71,-73
11:20:06.45,5.79,-72
11:20:06.45,3.05,-72
11:20:06.484,0.96,-72
11:20:06.484,2.04,-73
11:20:06.517,47.44,-73
11:20:06.567,-18.44,-72
11:20:06.567,-19.81,-74
11:20:06.567,-18.9,-73
11:20:06.616,-17.82,-73
11:20:06.616,-17.88,-73
11:20:06.65,-16.91,-73
11:20:06.65,-15.65,-72
11:20:06.699,-13.26,-77
11:20:06.699,-9.08,-87
11:20:06.745,-3.44,-104
11:20:06.745,2.26,-118
11:20:06.745,8.33,-131
11:20:06.784,13.97,-143
11:20:06.784,18.17,-154
11:20:06.831,19.06,-161
11:20:06.831,19.04,-170
11:20:06.865,17.68,-175
11:20:06.865,16.34,-179
11:20:06.914,14.46,-180
11:20:06.914,12.67,-178
11:20:06.964,12.45,-173
11:20:06.964,13.12,-166
11:20:06.964,14.33,-159
11:20:06.999,15.05,-149
11:20:07.033,15.3,-139
11:20:07.033,13.92,-131
11:20:07.067,12.11,-123
11:20:07.067,9.31,-115
11:20:07.116,5.86,-106
11:20:07.116,3,-100
11:20:07.15,0.11,-95
11:20:07.15,-1.17,-91
11:20:07.183,-2.87,-88
11:20:07.183,-4.62,-85
11:20:07.217,-6.46,-82
11:20:07.266,-6.64,-81
11:20:07.266,-6.47,-79
11:20:07.266,-6.37,-76
11:20:07.318,-6.49,-73
11:20:07.318,-5.74,-73
11:20:07.366,-4.82,-75
11:20:07.366,-1.74,-73
11:20:07.366,2.67,-71
11:20:07.417,3.7,-71
11:20:07.417,2.4,-70
11:20:07.467,3.57,-70
11:20:07.467,6.46,-70
11:20:07.467,63.43,-70
11:20:07.516,-18.5,-72
11:20:07.516,-22.55,-71
11:20:07.55,-20.54,-73
11:20:07.55,-19,-73
11:20:07.599,-17.52,-74
11:20:07.599,-17,-76
11:20:07.633,-16.44,-79
11:20:07.633,-15.31,-84
11:20:07.683,-13.89,-96
11:20:07.683,-11.6,-109
11:20:07.683,-8.66,-124
11:20:07.717,-4.9,-137
11:20:07.717,-1.48,-148
11:20:07.766,0.48,-157
11:20:07.766,0.68,-165
11:20:07.8,0.19,-173
11:20:07.8,-0.11,-175
11:20:07.834,-0.53,-178
11:20:07.867,-1.25,-180
11:20:07.867,-1.63,-179
11:20:07.914,-0.89,-176
11:20:07.914,0.61,-169
11:20:07.949,3.41,-162
11:20:07.949,7.16,-152
11:20:07.983,10.47,-144
11:20:07.983,11.98,-135
11:20:08.017,11.25,-127
11:20:08.05,9.34,-119
11:20:08.05,7.24,-112
11:20:08.083,4.69,-106
11:20:08.083,2.92,-101
11:20:08.117,1.52,-96
11:20:08.165,0.69,-93
11:20:08.165,-0.4,-89
11:20:08.165,-0.57,-87
11:20:08.2,-0.67,-85
11:20:08.2,-0.73,-83
11:20:08.234,-0.61,-81
11:20:08.267,-0.52,-80
11:20:08.267,-0.45,-79
11:20:08.316,0,-78
11:20:08.316,0.73,-78
11:20:08.365,2.58,-77
11:20:08.365,6.45,-77
11:20:08.365,7.46,-76
11:20:08.399,5.31,-76
11:20:08.399,3.79,-74
11:20:08.434,2.52,-74
11:20:08.483,46.03,-74
11:20:08.483,-4.23,-76
11:20:08.483,-21.11,-76
11:20:08.533,-19.6,-77
11:20:08.533,-19.32,-77
11:20:08.569,-19.21,-77
11:20:08.569,-18.91,-79
11:20:08.618,-18.48,-79
11:20:08.618,-17.55,-85
11:20:08.665,-15.56,-98
11:20:08.665,-12.38,-110
11:20:08.665,-9.94,-123
11:20:08.714,-6.5,-137
11:20:08.714,-3.76,-150
11:20:08.75,-1.81,-159
11:20:08.75,0.01,-167
11:20:08.783,2.15,-175
11:20:08.783,4.28,-181
11:20:08.817,4.55,-185
11:20:08.851,4.96,-187
11:20:08.851,5.7,-186
11:20:08.9,7.94,-182
11:20:08.9,12.09,-175
11:20:08.9,17.55,-165
11:20:08.948,21.71,-154
11:20:08.948,22.8,-144
11:20:09,21.77,-133
11:20:09,18.95,-124
11:20:09,14.46,-119
11:20:09.049,9.73,-113
11:20:09.049,5.06,-108
11:20:09.083,2.11,-101
11:20:09.083,0.31,-97
11:20:09.116,-0.19,-92
11:20:09.166,0.17,-89
11:20:09.166,0.38,-85
11:20:09.166,0.73,-83
11:20:09.217,1.38,-82
11:20:09.217,1.93,-78
11:20:09.217,2.36,-75
11:20:09.25,3.5,-74
11:20:09.299,4.58,-73
11:20:09.299,6.75,-73
11:20:09.299,11.02,-71
11:20:09.336,12.72,-71
11:20:09.336,10.21,-71
11:20:09.383,8.59,-72
11:20:09.383,6.61,-71
11:20:09.417,47.25,-71
11:20:09.417,34.81,-73
11:20:09.467,-9.49,-71
11:20:09.467,-9.92,-72
11:20:09.517,-8.55,-72
11:20:09.517,-6.08,-73
11:20:09.517,-4.13,-71
11:20:09.566,-0.78,-72
11:20:09.566,1.6,-75
11:20:09.6,3.73,-85
11:20:09.6,5.34,-101
11:20:09.634,6.27,-116
11:20:09.682,9.26,-133
11:20:09.682,12.18,-146
11:20:09.682,13.71,-156
11:20:09.717,13.46,-164
11:20:09.717,13.06,-170
11:20:09.75,12.56,-176
11:20:09.8,11.76,-181
11:20:09.8,10.88,-182
11:20:09.8,10.42,-183
11:20:09.85,11.45,-180
11:20:09.85,13.8,-174
11:20:09.884,16.47,-164
11:20:09.884,18.9,-153
11:20:09.932,20.08,-143
11:20:09.932,20.05,-135
11:20:09.965,18.53,-127
11:20:09.965,15.51,-119
11:20:09.998,11.61,-112
11:20:09.998,7.02,-105
11:20:10.034,3.72,-102
11:20:10.083,1.17,-98
11:20:10.083,-0.96,-94
11:20:10.083,-1.36,-90
11:20:10.117,-1.25,-86
11:20:10.117,-1.66,-82
11:20:10.166,-2.17,-81
11:20:10.166,-3.19,-79
11:20:10.201,-4.34,-78
11:20:10.201,-5.03,-76
11:20:10.249,-5.52,-76
11:20:10.249,-5.4,-74
11:20:10.284,-4.35,-75
11:20:10.284,-3.35,-74
11:20:10.333,-5.5,-75
11:20:10.333,-8.82,-74
11:20:10.382,-10.86,-73
11:20:10.382,-8.67,-73
11:20:10.382,44.08,-73
11:20:10.416,-37.55,-74
11:20:10.416,-37.95,-73
11:20:10.466,-36.04,-73
11:20:10.466,-35.62,-75
11:20:10.501,-35.12,-75
11:20:10.501,-33.77,-75
11:20:10.55,-32.7,-78
11:20:10.55,-30.81,-85
11:20:10.599,-27.99,-98
11:20:10.599,-24.61,-113
11:20:10.599,-20.19,-129
11:20:10.633,-15.02,-141
11:20:10.682,-11.05,-153
11:20:10.682,-8.67,-161
11:20:10.682,-7.15,-172
11:20:10.716,-7.46,-179
11:20:10.716,-7.61,-187
11:20:10.766,-7.7,-190
11:20:10.766,-7.56,-190
11:20:10.8,-6.61,-187
11:20:10.8,-4.6,-182
11:20:10.849,-0.05,-175
11:20:10.849,7.24,-164
11:20:10.884,15.15,-153
11:20:10.884,19.06,-145
11:20:10.931,19.03,-137
11:20:10.931,16.71,-129
11:20:10.964,13.57,-123
11:20:10.964,10.12,-116
11:20:11.001,8.36,-109
11:20:11.001,8.22,-102
11:20:11.049,7.88,-96
11:20:11.049,7.91,-93
11:20:11.083,8.12,-90
11:20:11.083,8.63,-86
11:20:11.117,9.63,-84
11:20:11.117,11.05,-80
11:20:11.15,12.64,-79
11:20:11.199,14.54,-77
11:20:11.199,16.99,-76
11:20:11.199,19.18,-75
11:20:11.233,22.43,-75
11:20:11.267,27.58,-74
11:20:11.267,25.86,-72
11:20:11.316,20.39,-73
11:20:11.316,16.81,-73
11:20:11.316,13.69,-74
11:20:11.35,63.81,-73
11:20:11.397,43.69,-74
11:20:11.397,-4.23,-74
11:20:11.397,-10.81,-75
11:20:11.445,-11.52,-76
11:20:11.445,-11.31,-77
11:20:11.481,-11.52,-77
11:20:11.481,-11.15,-77
11:20:11.515,-10.68,-80
11:20:11.515,-10.12,-90
11:20:11.55,-9.05,-104
11:20:11.584,-7.83,-118
11:20:11.584,-4.95,-133
11:20:11.633,0.38,-148
11:20:11.633,7.73,-160
11:20:11.633,11.71,-170
11:20:11.667,13.31,-178
11:20:11.714,14.75,-184
11:20:11.714,14.49,-187
11:20:11.714,14.08,-188
11:20:11.765,13.11,-185
11:20:11.765,12.58,-181
11:20:11.799,12.91,-175
11:20:11.799,15.46,-166
11:20:11.834,18.49,-157
11:20:11.834,20.6,-147
11:20:11.867,21.87,-136
11:20:11.915,20.91,-125
11:20:11.915,18.54,-117
11:20:11.915,15.55,-110
11:20:11.951,13.37,-104
11:20:11.999,10.19,-102
11:20:11.999,7.24,-98
11:20:11.999,3.41,-94
11:20:12.034,0.57,-89
11:20:12.034,-0.93,-84
11:20:12.067,-2.41,-83
11:20:12.116,-2.95,-81
11:20:12.116,-2.96,-80
11:20:12.116,-2.97,-78
11:20:12.15,-2.8,-76
11:20:12.199,-2.5,-75
11:20:12.199,-2.25,-74
11:20:12.199,-1.1,-74
11:20:12.234,-2.8,-73
11:20:12.282,-7.85,-72
11:20:12.282,-12.31,-72
11:20:12.282,-16.39,-72
11:20:12.316,48.29,-71
11:20:12.316,-34.12,-72
11:20:12.367,-55.64,-71
11:20:12.367,-49.88,-71
11:20:12.416,-46.53,-71
11:20:12.416,-42,-71
11:20:12.416,-36.7,-70
11:20:12.45,-30.82,-70
11:20:12.483,-24.65,-76
11:20:12.483,-20.05,-89
11:20:12.532,-15.04,-106
11:20:12.532,-10.52,-124
11:20:12.583,-4.9,-141
11:20:12.583,-1.88,-156
11:20:12.583,0.76,-166
11:20:12.633,2.52,-175
11:20:12.633,3.45,-181
11:20:12.633,3.94,-187
11:20:12.667,4.49,-191
11:20:12.7,6.08,-191
11:20:12.7,9.22,-189
11:20:12.734,15.52,-185
11:20:12.734,25.29,-179
11:20:12.783,33.47,-171
11:20:12.783,39.64,-161
11:20:12.816,42.02,-152
11:20:12.816,42.45,-142
11:20:12.866,41.65,-132
11:20:12.866,39.45,-124
11:20:12.901,35.58,-117
11:20:12.901,30.72,-111
11:20:12.947,25.62,-108
11:20:12.947,20.85,-103
11:20:12.982,16.48,-99
11:20:12.982,12.88,-95
11:20:13.016,10.65,-92
11:20:13.016,8.77,-91
11:20:13.05,7.36,-88
11:20:13.099,5.55,-86
11:20:13.099,3.65,-85
11:20:13.099,2.38,-82
11:20:13.151,0.97,-78
11:20:13.151,0.03,-78
11:20:13.195,0.31,-77
11:20:13.195,1.45,-76
11:20:13.195,0.02,-75
11:20:13.241,-5.75,-74
11:20:13.241,-11.9,-76
11:20:13.289,-19.21,-75
11:20:13.289,22.58,-76
11:20:13.336,43.57,-76
11:20:13.336,-35.84,-75
11:20:13.336,-44.95,-75
11:20:13.384,-41.12,-75
11:20:13.384,-37.51,-76
11:20:13.43,-34.49,-76
11:20:13.43,-31.24,-75
11:20:13.43,-27.68,-78
11:20:13.477,-23.86,-89
11:20:13.477,-18.96,-104
11:20:13.524,-14.13,-122
11:20:13.524,-8.66,-139
11:20:13.571,-1.7,-154
11:20:13.571,3.06,-167
11:20:13.571,6.06,-176
11:20:13.619,7.37,-185
11:20:13.619,9.07,-191
11:20:13.666,10.79,-194
11:20:13.666,11.54,-197
11:20:13.713,11.38,-195
11:20:13.713,12.48,-193
11:20:13.713,14.42,-187
11:20:13.747,18.02,-179
11:20:13.783,21.62,-167
11:20:13.783,24.38,-157
11:20:13.833,23.39,-144
11:20:13.833,20.89,-133
11:20:13.833,16.85,-125
11:20:13.866,13.42,-118
11:20:13.901,10.17,-113
11:20:13.901,7.93,-107
11:20:13.947,5.98,-101
11:20:13.947,4.87,-97
11:20:13.981,4.59,-92
11:20:13.981,4.43,-89
11:20:14.015,5.21,-85
11:20:14.015,6.07,-82
11:20:14.05,7.72,-78
11:20:14.05,10.68,-77
11:20:14.099,15.22,-75
11:20:14.099,20.08,-74
11:20:14.147,25.85,-73
11:20:14.147,34.68,-71
11:20:14.181,35.45,-70
11:20:14.181,30.9,-69
11:20:14.216,27.72,-67
11:20:14.216,25.22,-67
11:20:14.25,47.95,-66
11:20:14.25,101.88,-67
11:20:14.3,-12.34,-67
11:20:14.3,-3.7,-67
11:20:14.349,-2.61,-67
11:20:14.349,-0.63,-68
11:20:14.398,-0.39,-68
11:20:14.398,0.6,-69
11:20:14.398,2.11,-71
11:20:14.432,3.88,-81
11:20:14.432,6.19,-96
11:20:14.467,10.04,-114
11:20:14.515,14.29,-132
11:20:14.515,17.37,-148
11:20:14.515,18.08,-162
11:20:14.55,17.72,-173
11:20:14.55,16.71,-182
11:20:14.6,15.7,-188
11:20:14.6,13.62,-190
11:20:14.633,11.15,-193
11:20:14.633,8.19,-194
11:20:14.669,7.32,-193
11:20:14.715,7.54,-187
11:20:14.715,7.92,-178
11:20:14.715,9.31,-168
11:20:14.749,11.37,-157
11:20:14.749,12.22,-145
11:20:14.782,11.29,-133
11:20:14.816,9,-124
11:20:14.816,5.97,-117
11:20:14.865,2.09,-111
11:20:14.865,-2.76,-105
11:20:14.899,-7.2,-101
11:20:14.899,-9.98,-96
11:20:14.933,-12.15,-94
11:20:14.933,-13.66,-90
11:20:14.98,-15.54,-87
11:20:14.98,-17.81,-83
11:20:15.015,-19.71,-80
11:20:15.015,-20.89,-79
11:20:15.049,-21.89,-78
11:20:15.049,-22.22,-76
11:20:15.084,-21.67,-73
11:20:15.132,-20.12,-72
11:20:15.132,-17.01,-71
11:20:15.132,-17.38,-70
11:20:15.166,-20.45,-69
11:20:15.215,-22.53,-69
11:20:15.215,-24.91,-70
11:20:15.215,18.81,-72
11:20:15.25,-3.34,-73
11:20:15.25,-45.22,-73
11:20:15.3,-50.03,-74
11:20:15.3,-48.31,-75
11:20:15.334,-46.9,-76
11:20:15.334,-45.49,-77
11:20:15.382,-42.99,-76
11:20:15.382,-38.93,-80
11:20:15.415,-34.16,-91
11:20:15.415,-29.31,-106
11:20:15.449,-24.25,-123
11:20:15.449,-17.64,-137
11:20:15.482,-11.39,-152
11:20:15.532,-6.88,-164
11:20:15.532,-3.96,-177
11:20:15.532,-2.21,-186
11:20:15.566,-1.37,-192
11:20:15.6,-0.93,-197
11:20:15.6,0.11,-198
11:20:15.649,2.24,-195
11:20:15.649,5.42,-190
11:20:15.649,11.52,-183
11:20:15.683,20.27,-173
11:20:15.716,27.64,-161
11:20:15.716,30.69,-152
11:20:15.75,30.83,-141
11:20:15.75,29.59,-132
11:20:15.783,27.24,-123
11:20:15.816,23.98,-115
11:20:15.816,21.16,-107
11:20:15.865,19.47,-101
11:20:15.865,18.2,-97
11:20:15.9,17.8,-93
11:20:15.9,17.59,-88
11:20:15.949,17.45,-85
11:20:15.949,17.37,-82
11:20:15.949,17.31,-80
11:20:15.997,17.26,-77
11:20:15.997,17.23,-74
11:20:16.031,17.2,-73
11:20:16.031,17.5,-70
11:20:16.065,18.54,-67
11:20:16.099,19.92,-67
11:20:16.099,20.92,-67
11:20:16.15,17.36,-67
11:20:16.15,13.05,-67
11:20:16.199,9.9,-66
11:20:16.199,27.69,-66
11:20:16.199,87.82,-68
11:20:16.234,-26.88,-67
11:20:16.234,-23.29,-69
11:20:16.266,-21.44,-69
11:20:16.315,-19.97,-69
11:20:16.315,-18.52,-70
11:20:16.315,-16.99,-70
11:20:16.351,-14.69,-71
11:20:16.351,-11.22,-80
11:20:16.4,-8.23,-96
11:20:16.4,-4.39,-113
11:20:16.449,-0.22,-130
11:20:16.449,3.59,-144
11:20:16.449,6.98,-156
11:20:16.483,8.32,-167
11:20:16.516,8.57,-177
11:20:16.516,7.28,-184
11:20:16.549,5.75,-189
11:20:16.549,4.29,-191
11:20:16.599,2.95,-192
11:20:16.599,2.35,-191
11:20:16.649,3.06,-185
11:20:16.649,6.1,-176
11:20:16.649,10.71,-165
11:20:16.683,13.55,-153
11:20:16.717,15.43,-140
11:20:16.717,14.51,-128
11:20:16.762,13.38,-118
11:20:16.762,11.15,-112
11:20:16.796,8.35,-106
11:20:16.796,7.44,-101
11:20:16.831,6.98,-96
11:20:16.831,6.18,-91
11:20:16.882,5.61,-87
11:20:16.882,5.23,-83
11:20:16.916,5.83,-78
11:20:16.916,6.3,-75
11:20:16.95,6.66,-72
11:20:16.95,6.33,-71
11:20:16.997,6.64,-69
11:20:16.997,7.42,-67
11:20:17.031,9.38,-66
11:20:17.031,12.98,-66
11:20:17.064,14.95,-66
11:20:17.098,11.26,-66
11:20:17.098,8.6,-66
11:20:17.134,7.13,-65
11:20:17.134,25.3,-64
11:20:17.167,88.81,-66
11:20:17.167,-31.85,-68
11:20:17.215,-21.78,-70
11:20:17.215,-19.29,-71
11:20:17.249,-17.72,-72
11:20:17.249,-17.83,-71
11:20:17.283,-17.59,-73
11:20:17.333,-16.98,-74
11:20:17.333,-16.07,-83
11:20:17.333,-15.08,-97
11:20:17.366,-13.79,-114
11:20:17.366,-12.18,-128
11:20:17.415,-10,-144
11:20:17.415,-7.94,-158
11:20:17.45,-6.9,-169
11:20:17.45,-6.61,-179
11:20:17.483,-6.71,-187
11:20:17.532,-7.19,-191
11:20:17.532,-7.36,-193
11:20:17.532,-7.65,-191
11:20:17.568,-7.54,-188
11:20:17.568,-6.52,-180
11:20:17.616,-4.56,-171
11:20:17.616,-0.96,-159
11:20:17.65,3.34,-149
11:20:17.65,5.44,-138
11:20:17.683,4.47,-130
11:20:17.732,3.32,-122
11:20:17.732,1.37,-116
11:20:17.732,-1.1,-109
11:20:17.767,-3.64,-101
11:20:17.767,-6.08,-96
11:20:17.815,-6.05,-90
11:20:17.815,-6.87,-85
11:20:17.849,-7.17,-83
11:20:17.849,-6.22,-79
11:20:17.883,-5.68,-76
11:20:17.932,-5.52,-74
11:20:17.932,-4.83,-71
11:20:17.932,-4.02,-70
11:20:17.981,-3.11,-69
11:20:17.981,-2.37,-68
11:20:18.014,-0.36,-69
11:20:18.014,4.03,-69
11:20:18.048,7,-68
11:20:18.048,5.32,-68
11:20:18.083,3.72,-68
11:20:18.132,2.43,-66
11:20:18.132,10.35,-67
11:20:18.132,72.87,-66
11:20:18.169,-32.46,-67
11:20:18.169,-21,-67
11:20:18.215,-15.61,-67
11:20:18.215,-11.44,-66
11:20:18.249,-9.26,-68
11:20:18.249,-7.49,-68
11:20:18.283,-4.71,-70
11:20:18.316,-2.46,-78
11:20:18.316,0.78,-92
11:20:18.365,3.76,-111
11:20:18.365,5.53,-126
11:20:18.399,7.93,-142
11:20:18.399,11,-156
11:20:18.433,12.22,-168
11:20:18.433,11.8,-178
11:20:18.481,11.3,-187
11:20:18.481,10.73,-192
11:20:18.516,9.15,-193
11:20:18.516,8.55,-193
11:20:18.566,8.66,-189
11:20:18.566,9.57,-182
11:20:18.599,11.53,-172
11:20:18.599,14.96,-161
11:20:18.633,18.49,-151
11:20:18.633,20.42,-138
11:20:18.682,19.11,-128
11:20:18.682,16.7,-121
11:20:18.716,14.97,-111
11:20:18.716,13.58,-102
11:20:18.765,12.07,-94
11:20:18.765,10.75,-89
11:20:18.765,9.58,-85
11:20:18.799,9.4,-80
11:20:18.848,9.07,-77
11:20:18.848,9.05,-75
11:20:18.848,9.04,-73
11:20:18.882,9.04,-72
11:20:18.882,9.03,-71
11:20:18.932,9.03,-71
11:20:18.932,9.02,-70
11:20:18.98,9.31,-69
11:20:18.98,9.94,-69
11:20:19.014,9.8,-69
11:20:19.014,7.74,-70
11:20:19.048,4.73,-69
11:20:19.048,-0.18,-71
11:20:19.082,38.94,-71
11:20:19.082,50.38,-70
11:20:19.132,-16.07,-70
11:20:19.132,-30.08,-71
11:20:19.167,-30.03,-69
11:20:19.167,-28.78,-68
11:20:19.215,-27.81,-70
11:20:19.215,-26.32,-71
11:20:19.249,-24.34,-77
11:20:19.249,-22.19,-90
11:20:19.299,-19.63,-107
11:20:19.299,-16.73,-122
11:20:19.333,-12.43,-137
11:20:19.333,-6.79,-152
11:20:19.382,-2.86,-163
11:20:19.382,-1.03,-174
11:20:19.382,0.56,-181
11:20:19.416,1.79,-188
11:20:19.464,2.51,-192
11:20:19.464,2.93,-195
11:20:19.498,3.44,-193
11:20:19.498,4.48,-190
11:20:19.547,7.11,-184
11:20:19.547,11.82,-173
11:20:19.547,16.37,-160
11:20:19.594,19.04,-149
11:20:19.594,18.6,-136
11:20:19.632,17.13,-126
11:20:19.632,14.54,-118
11:20:19.682,10.32,-110
11:20:19.682,6.21,-105
11:20:19.733,2.89,-99
11:20:19.733,1.17,-94
11:20:19.733,0.35,-89
11:20:19.782,0.24,-85
11:20:19.782,0.18,-82
11:20:19.816,0.34,-79
11:20:19.816,0.64,-75
11:20:19.849,0.88,-74
11:20:19.849,1.06,-73
11:20:19.899,1.21,-71
11:20:19.899,1.46,-70
11:20:19.933,1.98,-69
11:20:19.933,3.13,-70
11:20:19.982,5.73,-69
11:20:19.982,6.79,-68
11:20:20.016,2.95,-68
11:20:20.016,-1.1,-67
11:20:20.065,-4.63,-68
11:20:20.065,16.56,-67
11:20:20.065,73.71,-69
11:20:20.099,-35.96,-69
11:20:20.147,-29.54,-71
11:20:20.147,-25.55,-71
11:20:20.147,-23.27,-71
11:20:20.182,-21.46,-72
11:20:20.217,-19.41,-74
11:20:20.217,-17.05,-76
11:20:20.249,-14.4,-83
11:20:20.249,-10.73,-98
11:20:20.298,-6.53,-115
11:20:20.298,-1.23,-131
11:20:20.334,3.36,-146
11:20:20.334,8.56,-158
11:20:20.383,11.29,-169
11:20:20.383,13.35,-181
11:20:20.383,13.99,-188
11:20:20.432,14.31,-194
11:20:20.432,14.23,-196
11:20:20.466,13.97,-194
11:20:20.466,13.79,-188
11:20:20.515,14.86,-181
11:20:20.515,17.3,-172
11:20:20.549,20.68,-161
11:20:20.549,24.37,-151
11:20:20.599,25.51,-140
11:20:20.599,22.85,-129
11:20:20.632,18.32,-120
11:20:20.632,14.08,-110
11:20:20.682,9.83,-103
11:20:20.682,7.55,-98
11:20:20.682,6.5,-91
11:20:20.716,5.31,-87
11:20:20.765,4.9,-83
11:20:20.765,4.4,-79
11:20:20.765,4.07,-76
11:20:20.799,3.84,-73
11:20:20.833,3.3,-72
11:20:20.833,3.24,-69
11:20:20.882,2.86,-68
11:20:20.882,2.71,-68
11:20:20.882,3.7,-66
11:20:20.916,5.59,-65
11:20:20.949,6.27,-66
11:20:20.949,3.61,-65
11:20:20.983,2.02,-66
11:20:21.017,-0.66,-67
11:20:21.017,21.78,-66
11:20:21.063,68.99,-65
11:20:21.063,-34.07,-65
11:20:21.063,-24.83,-65
11:20:21.098,-24.29,-65
11:20:21.132,-22.52,-64
11:20:21.132,-21.59,-65
11:20:21.166,-20.45,-65
11:20:21.166,-18.81,-69
11:20:21.199,-16.65,-80
11:20:21.234,-13.29,-97
11:20:21.234,-8.71,-112
11:20:21.282,-1.89,-128
11:20:21.282,3.39,-143
11:20:21.316,7.31,-157
11:20:21.316,11.44,-167
11:20:21.365,13.12,-175
11:20:21.365,13.07,-180
11:20:21.365,12.2,-183
11:20:21.415,11.61,-186
11:20:21.415,11.21,-187
11:20:21.449,11.39,-185
11:20:21.449,12.48,-181
11:20:21.482,14.46,-169
11:20:21.482,17.63,-157
11:20:21.516,20.45,-145
11:20:21.565,21.47,-135
11:20:21.565,21.31,-128
11:20:21.565,19.94,-120
11:20:21.599,17.97,-114
11:20:21.635,16.03,-107
11:20:21.635,14.31,-100
11:20:21.682,12.85,-92
11:20:21.682,11.27,-87
11:20:21.682,10.2,-83
11:20:21.716,8.63,-82
11:20:21.75,7.17,-80
11:20:21.75,5.86,-79
11:20:21.782,4.97,-76
11:20:21.782,3.84,-73
11:20:21.832,2.75,-71
11:20:21.832,1.97,-69
11:20:21.866,1.45,-69
11:20:21.866,1.58,-68
11:20:21.915,2.28,-68
11:20:21.915,0.51,-67
11:20:21.949,-4.41,-68
11:20:21.949,-9.02,-68
11:20:21.983,-13.74,-68
11:20:21.983,44.43,-67
11:20:22.018,1.77,-68
11:20:22.063,-39.04,-68
11:20:22.063,-38.18,-69
11:20:22.063,-36.18,-69
11:20:22.098,-34.89,-70
11:20:22.132,-34.24,-70
11:20:22.132,-32.7,-72
11:20:22.182,-30.64,-76
11:20:22.182,-28.38,-88
11:20:22.182,-26.08,-104
11:20:22.216,-23.45,-120
11:20:22.267,-19.39,-135
11:20:22.267,-15.23,-149
11:20:22.267,-10.97,-159
11:20:22.314,-7.69,-169
11:20:22.314,-5.16,-178
11:20:22.347,-3.45,-185
11:20:22.347,-2.18,-191
11:20:22.393,-0.47,-192
11:20:22.393,1.7,-193
11:20:22.431,6.07,-186
11:20:22.431,12.23,-178
11:20:22.464,19.82,-167
11:20:22.464,26.08,-155
11:20:22.5,27.67,-144
11:20:22.5,26.98,-134
11:20:22.548,24.71,-126
11:20:22.548,21.26,-118
11:20:22.582,16.62,-109
11:20:22.582,13.06,-102
11:20:22.616,11.23,-94
11:20:22.664,9.59,-88
11:20:22.664,9.38,-84
11:20:22.664,9.27,-80
11:20:22.713,9.21,-78
11:20:22.713,9.17,-74
11:20:22.749,9.15,-72
11:20:22.749,9.13,-71
11:20:22.784,8.99,-69
11:20:22.784,9.11,-69
11:20:22.831,9.33,-69
11:20:22.831,9.78,-67
11:20:22.866,10.82,-66
11:20:22.866,12.64,-65
11:20:22.899,10.81,-66
11:20:22.948,8.35,-66
11:20:22.948,6.43,-65
11:20:22.948,7.7,-66
11:20:22.982,53.98,-66
11:20:22.982,-16.73,-66
11:20:23.015,-23.18,-66
11:20:23.05,-21.86,-68
11:20:23.05,-19.8,-69
11:20:23.097,-19.1,-69
11:20:23.097,-17.5,-71
11:20:23.097,-15.41,-73
11:20:23.13,-13.54,-79
11:20:23.165,-11.26,-92
11:20:23.165,-10.44,-107
11:20:23.214,-9.37,-121
11:20:23.214,-8.38,-135
11:20:23.26,-5.74,-147
11:20:23.26,-3,-159
11:20:23.26,-1.08,-167
11:20:23.307,0.05,-176
11:20:23.307,0.03,-181
11:20:23.353,0.03,-185
11:20:23.353,-0.18,-186
11:20:23.401,1.47,-186
11:20:23.401,3.39,-181
11:20:23.401,6.98,-172
11:20:23.447,12.2,-162
11:20:23.447,18.82,-150
11:20:23.494,21.58,-139
11:20:23.494,20.43,-129
11:20:23.54,18.83,-118
11:20:23.54,16.84,-110
11:20:23.54,14.09,-104
11:20:23.587,12.51,-98
11:20:23.587,10.92,-93
11:20:23.634,9.6,-89
11:20:23.634,9.09,-86
11:20:23.681,9.06,-82
11:20:23.681,9.48,-78
11:20:23.681,9.38,-75
11:20:23.727,9.14,-75
11:20:23.727,9.45,-74
11:20:23.763,10.37,-72
11:20:23.763,11.52,-70
11:20:23.797,12.85,-68
11:20:23.797,15.07,-67
11:20:23.832,15.71,-66
11:20:23.866,11.83,-66
11:20:23.866,7.08,-65
11:20:23.899,1.9,-66
11:20:23.899,24.28,-66
11:20:23.932,84.84,-67
11:20:23.98,-43.15,-65
11:20:23.98,-31.83,-65
11:20:23.98,-27.9,-64
11:20:24.014,-26.4,-65
11:20:24.05,-24.24,-65
11:20:24.05,-23.77,-65
11:20:24.096,-22.34,-68
11:20:24.096,-21.31,-76
11:20:24.096,-20.35,-90
11:20:24.131,-18.86,-108
11:20:24.166,-16.5,-125
11:20:24.166,-13.19,-138
11:20:24.215,-8.25,-152
11:20:24.215,-3.4,-162
11:20:24.249,-1.74,-169
11:20:24.249,-1.84,-177
11:20:24.282,-2.47,-181
11:20:24.282,-2.86,-184
11:20:24.334,-2.9,-185
11:20:24.334,-2.35,-183
11:20:24.381,-0.9,-178
11:20:24.381,1.36,-171
11:20:24.381,4.16,-160
11:20:24.415,8.25,-150
11:20:24.449,9.9,-140
11:20:24.449,9.18,-132
11:20:24.498,6.96,-122
11:20:24.498,3.5,-114
11:20:24.498,-1.62,-107
11:20:24.532,-7.07,-100
11:20:24.566,-11.09,-96
11:20:24.566,-12.95,-91
11:20:24.615,-12.97,-87
11:20:24.615,-12.12,-85
11:20:24.649,-11.01,-82
11:20:24.649,-9.35,-79
11:20:24.723,-7.4,-78
11:20:24.723,-5.26,-75
11:20:24.723,-2.69,-75
11:20:24.723,0.98,-74
11:20:24.763,5.27,-73
11:20:24.763,10.68,-71
11:20:24.798,18.85,-71
11:20:24.798,20.07,-69
11:20:24.832,15.55,-71
11:20:24.866,13.91,-70
11:20:24.866,10.86,-71
11:20:24.898,45.62,-71
11:20:24.898,54.67,-72
11:20:24.948,-6.83,-71
11:20:24.948,-28.76,-72
11:20:24.982,-31.2,-73
11:20:24.982,-33.6,-72
11:20:25.029,-35.47,-73
11:20:25.029,-36.05,-73
11:20:25.067,-35.43,-76
11:20:25.067,-33.43,-84
11:20:25.115,-30.43,-97
11:20:25.115,-26.06,-109
11:20:25.163,-18.82,-123
11:20:25.163,-10.28,-139
11:20:25.163,-2.55,-152
11:20:25.198,3.52,-162
11:20:25.232,9.2,-171
11:20:25.232,16.46,-178
11:20:25.265,21.76,-182
11:20:25.265,26.05,-183
11:20:25.315,27.49,-181
11:20:25.315,30.39,-176
11:20:25.315,35.89,-170
11:20:25.349,42.78,-163
11:20:25.396,48.84,-154
11:20:25.396,53.2,-146
11:20:25.396,53.59,-134
11:20:25.43,50.61,-124
11:20:25.463,44.88,-117
11:20:25.463,37.08,-109
11:20:25.497,44.87,-104
11:20:25.497,48.38,-99
11:20:25.53,46.76,-94
11:20:25.563,42.16,-90
11:20:25.563,37.03,-88
11:20:25.599,31.1,-83
11:20:25.599,24.8,-80
11:20:25.648,17.42,-77
11:20:25.648,12.7,-75
11:20:25.682,10.31,-72
11:20:25.682,7.19,-71
11:20:25.716,6.68,-68
11:20:25.716,6.14,-68
11:20:25.765,5.55,-67
11:20:25.765,4.42,-67
11:20:25.799,1.11,-67
11:20:25.799,-3.42,-67
11:20:25.834,-5.49,-67
11:20:25.834,11.4,-68
11:20:25.882,75.36,-66
11:20:25.882,-42.35,-67
11:20:25.916,-29.05,-68
11:20:25.916,-27.63,-67
11:20:25.965,-24.16,-67
11:20:25.965,-21.42,-66
11:20:25.999,-19.57,-66
11:20:25.999,-17.85,-70
11:20:26.047,-16.49,-77
11:20:26.047,-14.68,-89
11:20:26.081,-11.75,-104
11:20:26.081,-7.98,-118
11:20:26.129,-4.52,-133
11:20:26.129,-2.54,-143
11:20:26.165,-1.55,-155
11:20:26.165,-1.37,-163
11:20:26.199,-1.53,-169
11:20:26.199,-3.78,-175
11:20:26.248,-5.68,-177
11:20:26.248,-6.45,-177
11:20:26.282,-6.61,-175
11:20:26.282,-6,-172
11:20:26.316,-4.4,-166
11:20:26.316,-1.22,-157
11:20:26.362,2.23,-146
11:20:26.362,4.22,-136
11:20:26.397,4.14,-127
11:20:26.397,3.26,-120
11:20:26.432,1.3,-110
11:20:26.466,-1.33,-104
11:20:26.466,-3.05,-99
11:20:26.499,-3.73,-95
11:20:26.499,-3.81,-91
11:20:26.548,-4.09,-87
11:20:26.548,-4.28,-86
11:20:26.582,-4.23,-83
11:20:26.582,-3.55,-81
11:20:26.631,-2.71,-79
11:20:26.631,-1.72,-78
11:20:26.665,-0.6,-76
11:20:26.665,1.63,-75
11:20:26.699,5.32,-75
11:20:26.699,10.52,-74
11:20:26.732,10.75,-74
11:20:26.779,6.47,-74
11:20:26.779,2.37,-72
11:20:26.779,-1,-74
11:20:26.813,18.04,-74
11:20:26.813,82.52,-74
11:20:26.848,-39.88,-75
11:20:26.882,-33.49,-75
11:20:26.882,-31.36,-76
11:20:26.915,-30.74,-79
11:20:26.915,-30.15,-79
11:20:26.965,-28.97,-80
11:20:26.965,-27.54,-82
11:20:26.999,-25.57,-90
11:20:26.999,-23.39,-101
11:20:27.048,-21.12,-113
11:20:27.048,-18.13,-127
11:20:27.083,-14.48,-137
11:20:27.083,-11.67,-149
11:20:27.129,-10.14,-160
11:20:27.129,-9.36,-169
11:20:27.165,-8.64,-177
11:20:27.165,-7.92,-182
11:20:27.2,-6.91,-183
11:20:27.2,-4.82,-184
11:20:27.248,-2.31,-179
11:20:27.248,2.17,-174
11:20:27.282,9.26,-165
11:20:27.282,15.02,-156
11:20:27.315,19.75,-146
11:20:27.315,20.87,-138
11:20:27.366,20.54,-130
11:20:27.366,19.51,-123
11:20:27.399,17.95,-115
11:20:27.399,16.13,-108
11:20:27.448,14.45,-103
11:20:27.448,12.98,-98
11:20:27.482,11.69,-95
11:20:27.482,10.85,-90
11:20:27.531,10.61,-86
11:20:27.531,10.7,-83
11:20:27.581,10.76,-83
11:20:27.581,10.97,-82
11:20:27.581,11.45,-80
11:20:27.615,12.23,-79
11:20:27.615,13.38,-77
11:20:27.649,15.21,-75
11:20:27.697,17.82,-74
11:20:27.697,21.46,-73
11:20:27.697,20.43,-73
11:20:27.732,14.45,-74
11:20:27.767,7.92,-74
11:20:27.767,1.05,-72
11:20:27.816,55.42,-71
11:20:27.816,36.21,-73
11:20:27.816,-21.3,-72
11:20:27.864,-28.84,-73
11:20:27.864,-28.32,-73
11:20:27.913,-27.39,-73
11:20:27.913,-26.6,-74
11:20:27.946,-25.84,-76
11:20:27.946,-24.28,-80
11:20:27.982,-22.41,-88
11:20:27.982,-19.33,-102
11:20:28.031,-14.94,-117
11:20:28.031,-9.98,-131
11:20:28.065,-4.15,-144
11:20:28.065,1.1,-155
11:20:28.099,3.6,-164
11:20:28.099,4.2,-172
11:20:28.146,3.81,-178
11:20:28.146,4.13,-181
11:20:28.181,4.33,-182
11:20:28.181,4.87,-182
11:20:28.216,4.9,-179
11:20:28.216,5.6,-174
11:20:28.265,6.45,-166
11:20:28.265,8.54,-155
11:20:28.298,10.17,-146
11:20:28.298,11.7,-138
11:20:28.348,12.12,-127
11:20:28.348,10.76,-118
11:20:28.383,9.68,-110
11:20:28.383,8.93,-105
11:20:28.432,8.42,-100
11:20:28.432,8.32,-96
11:20:28.432,8.65,-92
11:20:28.465,9.48,-88
11:20:28.499,9.59,-85
11:20:28.499,9.48,-81
11:20:28.533,9.4,-80
11:20:28.533,9.78,-79
11:20:28.581,9.81,-77
11:20:28.581,10.11,-75
11:20:28.633,10.24,-74
11:20:28.633,11.15,-73
11:20:28.633,12.78,-74
11:20:28.681,12.58,-72
11:20:28.681,10.5,-72
11:20:28.715,8.56,-73
11:20:28.715,6.72,-72
11:20:28.764,50.91,-72
11:20:28.764,12.15,-73
11:20:28.797,-25.08,-73
11:20:28.797,-16.82,-72
11:20:28.832,-14.44,-73
11:20:28.832,-11.46,-74
11:20:28.865,-7.81,-73
11:20:28.9,-4.79,-73
11:20:28.9,-0.18,-76
11:20:28.948,3.67,-86
11:20:28.948,7.51,-101
11:20:28.982,9.57,-116
11:20:28.982,13.33,-129
11:20:29.015,16.24,-141
11:20:29.015,18.25,-152
11:20:29.048,18.15,-162
11:20:29.098,17.83,-170
11:20:29.098,16.67,-177
11:20:29.098,14.92,-180
11:20:29.146,12.52,-180
11:20:29.146,10.22,-179
11:20:29.182,8.67,-177
11:20:29.182,9.12,-171
11:20:29.215,9.93,-164
11:20:29.215,11.01,-157
11:20:29.25,11.55,-147
11:20:29.25,11.66,-137
11:20:29.298,10.71,-128
11:20:29.298,8.47,-120
11:20:29.332,5.82,-113
11:20:29.332,2.96,-107
11:20:29.38,-0.18,-102
11:20:29.38,-2.6,-98
11:20:29.416,-4.34,-94
11:20:29.416,-5.67,-91
11:20:29.448,-6.77,-89
11:20:29.499,-7.46,-86
11:20:29.499,-7.61,-83
11:20:29.499,-7.92,-82
11:20:29.532,-8.34,-80
11:20:29.532,-8.86,-78
11:20:29.579,-8.89,-78
11:20:29.579,-8.74,-78
11:20:29.615,-7.54,-77
11:20:29.615,-7.43,-77
11:20:29.648,-9.75,-77
11:20:29.682,-12.77,-77
11:20:29.682,-16.22,-76
11:20:29.739,8.96,-77
11:20:29.739,50.76,-77
11:20:29.739,-49.62,-77
11:20:29.782,-46.31,-77
11:20:29.782,-43.92,-79
11:20:29.831,-42.18,-78
11:20:29.831,-40.21,-79
11:20:29.831,-37.93,-80
11:20:29.881,-34.98,-81
11:20:29.881,-31.38,-88
11:20:29.915,-27.33,-99
11:20:29.915,-23.08,-114
11:20:29.948,-17.42,-128
11:20:29.998,-10.6,-141
11:20:29.998,-5.38,-155
11:20:29.998,-2.09,-164
11:20:30.033,0.7,-174
11:20:30.033,2.95,-181
11:20:30.08,4.94,-185
11:20:30.08,6.08,-188
11:20:30.115,7.03,-189
11:20:30.115,9.1,-185
11:20:30.162,13.09,-179
11:20:30.162,18.55,-170
11:20:30.196,23.2,-160
11:20:30.196,25.55,-149
11:20:30.231,25.74,-139
11:20:30.231,23.99,-130
11:20:30.281,21.07,-125
11:20:30.281,16.47,-117
11:20:30.315,11.69,-112
11:20:30.315,7.01,-106
11:20:30.349,4.08,-100
11:20:30.349,2.73,-95
11:20:30.399,2.46,-90
11:20:30.399,2.61,-87
11:20:30.433,3.16,-84
11:20:30.433,3.79,-83
11:20:30.481,4.5,-82
11:20:30.481,5.29,-79
11:20:30.515,5.92,-79
11:20:30.515,7.54,-78
11:20:30.548,10.2,-77
11:20:30.596,14.02,-76
11:20:30.596,18.25,-76
11:20:30.596,15.38,-75
11:20:30.646,12.66,-74
11:20:30.646,11.15,-73
11:20:30.68,13.62,-74
11:20:30.68,65.09,-74
11:20:30.729,-20.51,-73
11:20:30.729,-21.86,-74
11:20:30.729,-20.4,-76
11:20:30.764,-19.45,-77
11:20:30.798,-18.64,-79
11:20:30.798,-17,-80
11:20:30.848,-15.13,-79
11:20:30.848,-13.08,-85
11:20:30.848,-10.61,-95
11:20:30.882,-7.76,-110
11:20:30.915,-3.49,-123
11:20:30.915,2.15,-136
11:20:30.948,7.62,-149
11:20:30.948,11.91,-159
11:20:30.998,13.9,-167
11:20:30.998,13.53,-176
11:20:31.032,12.76,-183
11:20:31.032,11.99,-186
11:20:31.081,11.47,-188
11:20:31.081,12.07,-184
11:20:31.115,13.21,-178
11:20:31.115,15.97,-170
11:20:31.164,19.8,-160
11:20:31.164,24.95,-150
11:20:31.212,26.91,-142
11:20:31.212,24.92,-134
11:20:31.212,21.56,-126
11:20:31.248,18.83,-118
11:20:31.248,16.05,-111
11:20:31.3,13.99,-104
11:20:31.3,12.48,-99
11:20:31.348,10.92,-94
11:20:31.348,9.95,-91
11:20:31.348,9.06,-89
11:20:31.397,8.76,-85
11:20:31.397,7.87,-83
11:20:31.432,6.92,-80
11:20:31.432,5.92,-77
11:20:31.466,5.16,-74
11:20:31.466,4.36,-72
11:20:31.514,3.27,-71
11:20:31.514,2.94,-72
11:20:31.549,4.1,-71
11:20:31.549,0.99,-70
11:20:31.582,-5.88,-70
11:20:31.631,-14.13,-70
11:20:31.631,-20.35,-69
11:20:31.631,48.41,-70
11:20:31.665,-19.81,-71
11:20:31.699,-61.58,-72
11:20:31.699,-54.41,-74
11:20:31.748,-49.91,-74
11:20:31.748,-46.87,-75
11:20:31.782,-42.88,-76
11:20:31.782,-36.51,-77
11:20:31.83,-28.4,-81
11:20:31.83,-20.17,-90
11:20:31.83,-13.66,-104
11:20:31.878,-7.22,-119
11:20:31.878,-0.02,-133
11:20:31.913,6.13,-146
11:20:31.913,9.84,-157
11:20:31.946,11.82,-167
11:20:31.983,12.7,-174
11:20:31.983,12.8,-180
11:20:32.015,13.1,-185
11:20:32.015,13.3,-188
11:20:32.049,13.82,-187
11:20:32.049,14.85,-183
11:20:32.097,16.73,-177
11:20:32.097,19.47,-168
11:20:32.131,22.92,-158
11:20:32.131,26.27,-149
11:20:32.165,27.01,-139
11:20:32.212,26.34,-130
11:20:32.212,23.95,-122
11:20:32.212,20.18,-114
11:20:32.248,15.07,-108
11:20:32.281,11.67,-104
11:20:32.281,10.01,-101
11:20:32.315,8.86,-97
11:20:32.315,8.58,-94
11:20:32.364,8.42,-90
11:20:32.364,8.33,-87
11:20:32.398,8.27,-85
11:20:32.398,8.23,-83
11:20:32.431,8.19,-79
11:20:32.431,8.68,-78
11:20:32.466,9.92,-76
11:20:32.466,12.29,-75
11:20:32.5,16.56,-76
11:20:32.554,23.11,-76
11:20:32.554,24.09,-76
11:20:32.554,22.15,-75
11:20:32.599,21.73,-75
11:20:32.599,21.23,-75
11:20:32.648,56.16,-74
11:20:32.648,10.25,-73
11:20:32.648,-8.51,-75
11:20:32.682,-7.41,-75
11:20:32.729,-8.13,-75
11:20:32.729,-8.43,-75
11:20:32.729,-8.59,-76
11:20:32.765,-8.68,-77
11:20:32.814,-8.55,-81
11:20:32.814,-8.29,-91
11:20:32.814,-8.08,-106
11:20:32.848,-8.07,-122
11:20:32.848,-7.79,-134
11:20:32.897,-7.26,-148
11:20:32.897,-7.05,-159
11:20:32.932,-7.2,-169
11:20:32.932,-7.46,-177
11:20:32.981,-7.98,-184
11:20:32.981,-8.64,-189
11:20:33.016,-9.27,-190
11:20:33.016,-9.42,-190
11:20:33.065,-8.63,-185
11:20:33.065,-7.29,-178
11:20:33.065,-4.69,-167
11:20:33.098,-0.39,-156
11:20:33.131,3.26,-146
11:20:33.131,4.48,-136
11:20:33.179,2.86,-127
11:20:33.179,0.5,-119
11:20:33.226,-2.62,-113
11:20:33.226,-5.2,-109
11:20:33.226,-9.1,-103
11:20:33.273,-11.26,-98
11:20:33.273,-11.95,-93
11:20:33.32,-11.33,-90
11:20:33.32,-10.41,-87
11:20:33.366,-9.5,-83
11:20:33.366,-8.31,-80
11:20:33.366,-7.11,-78
11:20:33.414,-5.38,-76
11:20:33.414,-2.43,-74
11:20:33.46,1.14,-72
11:20:33.46,7.01,-72
11:20:33.507,13.54,-73
11:20:33.507,11.64,-72
11:20:33.507,8.43,-71
11:20:33.553,6.97,-70
11:20:33.553,6.25,-70
11:20:33.6,48.34,-70
11:20:33.6,-1.87,-70
11:20:33.647,-25.03,-72
11:20:33.647,-20.45,-72
11:20:33.647,-17.45,-70
11:20:33.694,-14.95,-71
11:20:33.694,-12.9,-70
11:20:33.73,-11.02,-70
11:20:33.73,-8.11,-75
11:20:33.779,-5.3,-86
11:20:33.779,-0.74,-101
11:20:33.814,2.38,-117
11:20:33.814,7.45,-132
11:20:33.848,12.08,-145
11:20:33.848,13.99,-158
11:20:33.896,14.4,-168
11:20:33.896,14.58,-176
11:20:33.933,14.44,-181
11:20:33.933,13.32,-185
11:20:33.98,12.03,-186
11:20:33.98,11.21,-184
11:20:34.014,11.16,-183
11:20:34.014,11.54,-176
11:20:34.065,12.43,-167
11:20:34.065,14.57,-156
11:20:34.114,17.44,-145
11:20:34.114,17.65,-133
11:20:34.114,17.47,-122
11:20:34.147,15.97,-117
11:20:34.147,14.05,-111
11:20:34.182,12.12,-106
11:20:34.229,10.05,-102
11:20:34.229,7.56,-96
11:20:34.229,5.1,-92
11:20:34.263,3.53,-89
11:20:34.263,2.64,-85
11:20:34.298,2.14,-83
11:20:34.348,1.58,-81
11:20:34.348,1.2,-79
11:20:34.348,0.94,-78
11:20:34.396,0.75,-77
11:20:34.396,0.62,-76
11:20:34.432,1.48,-75
11:20:34.432,2.96,-75
11:20:34.48,3.23,-72
11:20:34.48,0.53,-72
11:20:34.515,-2.94,-73
11:20:34.515,-5.79,-73
11:20:34.548,13.28,-72
11:20:34.548,72.44,-72
11:20:34.582,-42.61,-74
11:20:34.631,-36.49,-74
11:20:34.631,-34.38,-74
11:20:34.631,-33.31,-74
11:20:34.664,-32.48,-76
11:20:34.664,-31.11,-75
11:20:34.698,-28.62,-79
11:20:34.747,-25.19,-84
11:20:34.747,-20.99,-97
11:20:34.747,-16.91,-112
11:20:34.781,-12.78,-127
11:20:34.814,-7.28,-143
11:20:34.814,-2.1,-158
11:20:34.865,1.49,-168
11:20:34.865,3.12,-179
11:20:34.914,3.84,-184
11:20:34.914,4.21,-188
11:20:34.914,4.41,-191
11:20:34.948,4.98,-191
11:20:34.948,6.49,-187
11:20:34.981,9.32,-181
11:20:35.015,13.82,-172
11:20:35.015,17.92,-161
11:20:35.066,20.72,-152
11:20:35.066,21.27,-141
11:20:35.066,20.21,-133
11:20:35.098,18.04,-125
11:20:35.147,18.03,-116
11:20:35.147,21.34,-108
11:20:35.147,21.95,-102
11:20:35.182,20.46,-97
11:20:35.182,18.14,-92
11:20:35.229,14.93,-89
11:20:35.229,11.74,-85
11:20:35.265,8.5,-84
11:20:35.265,6.15,-83
11:20:35.314,4.1,-79
11:20:35.314,2.56,-76
11:20:35.349,1.67,-75
11:20:35.349,1.17,-73
11:20:35.397,1.38,-73
11:20:35.397,1.96,-73
11:20:35.431,3.93,-72
11:20:35.431,4.54,-71
11:20:35.465,1.52,-71
11:20:35.465,-1.91,-70
11:20:35.514,-4.42,-70
11:20:35.514,18.1,-69
11:20:35.548,67.4,-69
11:20:35.548,-34.91,-71
11:20:35.597,-29.49,-73
11:20:35.597,-27.42,-73
11:20:35.647,-26.34,-74
11:20:35.647,-25.15,-74
11:20:35.647,-23.17,-76
11:20:35.698,-20.04,-78
11:20:35.698,-16.85,-87
11:20:35.731,-14,-99
11:20:35.731,-11.94,-114
11:20:35.765,-8.14,-130
11:20:35.765,-4.19,-145
11:20:35.814,0.43,-156
11:20:35.814,2.61,-168
11:20:35.848,4,-176
11:20:35.848,4,-184
11:20:35.881,3.48,-189
11:20:35.881,3.12,-192
11:20:35.93,2.88,-192
11:20:35.93,3.1,-190
11:20:35.98,4.67,-182
11:20:35.98,8.01,-173
11:20:36.029,13.54,-160
11:20:36.029,19.04,-150
11:20:36.029,22.06,-137
11:20:36.063,20.69,-128
11:20:36.063,19.7,-119
11:20:36.112,17.56,-112
11:20:36.112,15.28,-106
11:20:36.148,13.35,-100
11:20:36.148,11.79,-94
11:20:36.182,11.52,-88
11:20:36.182,11.12,-84
11:20:36.215,10.38,-81
11:20:36.249,9.82,-78
11:20:36.249,9.41,-75
11:20:36.298,9.11,-73
11:20:36.298,9.09,-71
11:20:36.347,8.91,-70
11:20:36.347,9.23,-70
11:20:36.347,10.29,-69
11:20:36.381,12.11,-68
11:20:36.381,12.64,-68
11:20:36.415,9.48,-68
11:20:36.465,6.41,-67
11:20:36.465,3.44,-68
11:20:36.465,17.64,-67
11:20:36.498,83.19,-65
11:20:36.547,-39.03,-64
11:20:36.547,-28.78,-65
11:20:36.547,-24.96,-66
11:20:36.581,-22.43,-67
11:20:36.581,-20.94,-68
11:20:36.631,-18.39,-69
11:20:36.631,-15.17,-72
11:20:36.688,-12.62,-80
11:20:36.688,-8.76,-95
11:20:36.688,-5.79,-112
11:20:36.731,-3.33,-129
11:20:36.731,-1.99,-144
11:20:36.767,-0.25,-156
11:20:36.767,0.86,-166
11:20:36.814,1.53,-175
11:20:36.814,1.39,-181
11:20:36.849,1.07,-184
11:20:36.849,0.86,-187
11:20:36.897,0.51,-187
11:20:36.897,0.6,-183
11:20:36.931,1.14,-178
11:20:36.931,2.34,-171
11:20:36.965,4.31,-161
11:20:36.965,7.2,-152
11:20:37.014,10.45,-142
11:20:37.014,11.91,-132
11:20:37.048,10.87,-125
11:20:37.048,9.33,-117
11:20:37.098,7.31,-110
11:20:37.098,5.83,-104
11:20:37.131,4.57,-98
11:20:37.131,3.77,-94
11:20:37.18,2.99,-91
11:20:37.18,2.46,-87
11:20:37.18,2.11,-84
11:20:37.215,1.87,-81
11:20:37.263,1.7,-78
11:20:37.263,1.58,-77
11:20:37.263,1.33,-75
11:20:37.297,1.28,-76
11:20:37.347,1.38,-76
11:20:37.347,2.1,-76
11:20:37.347,3.58,-76
11:20:37.395,4.64,-74
11:20:37.395,2.17,-73
11:20:37.443,0.1,-73
11:20:37.443,-0.99,-73
11:20:37.443,13.19,-73
11:20:37.479,72.68,-74
11:20:37.479,-35.56,-76
11:20:37.514,-27.67,-75
11:20:37.548,-25.36,-75
11:20:37.548,-24.73,-74
11:20:37.597,-24.13,-73
11:20:37.597,-23.23,-74
11:20:37.648,-21.8,-75
11:20:37.648,-19.5,-82
11:20:37.648,-15.89,-96
11:20:37.697,-12.63,-112
11:20:37.697,-8.53,-129
11:20:37.747,-3.74,-143
11:20:37.747,0.48,-156
11:20:37.747,3.1,-167
11:20:37.781,5.18,-177
11:20:37.814,6.27,-182
11:20:37.814,6.85,-187
11:20:37.848,7.17,-190
11:20:37.848,7.37,-187
11:20:37.881,8.11,-185
11:20:37.881,10.05,-181
11:20:37.931,13.54,-171
11:20:37.931,18.02,-160
11:20:37.965,21.66,-151
11:20:37.965,22.71,-140
11:20:37.998,21.03,-131
11:20:38.047,17.23,-123
11:20:38.047,12.93,-115
11:20:38.047,8.83,-109
11:20:38.081,5.19,-103
11:20:38.081,3.29,-99
11:20:38.131,2,-94
11:20:38.131,1.32,-90
11:20:38.164,0.93,-85
11:20:38.164,0.7,-82
11:20:38.214,0.55,-80
11:20:38.214,0.45,-79
11:20:38.262,0.38,-77
11:20:38.262,0.32,-75
11:20:38.262,0.54,-75
11:20:38.297,1,-74
11:20:38.332,2.52,-74
11:20:38.332,5.67,-73
11:20:38.364,6.14,-71
11:20:38.364,4.38,-72
11:20:38.415,3,-72
11:20:38.415,2.06,-72
11:20:38.448,41.03,-73
11:20:38.448,3.88,-73
11:20:38.497,-21.41,-74
11:20:38.497,-21.09,-74
11:20:38.531,-18.83,-74
11:20:38.531,-18.09,-74
11:20:38.565,-17.74,-73
11:20:38.565,-17.02,-73
11:20:38.598,-16.26,-78
11:20:38.598,-14.47,-90
11:20:38.646,-12.84,-105
11:20:38.646,-10.36,-120
11:20:38.681,-7.35,-135
11:20:38.681,-2.83,-151
11:20:38.731,1.23,-162
11:20:38.731,4.37,-172
11:20:38.781,5.96,-181
11:20:38.781,6.72,-186
11:20:38.781,6.19,-189
11:20:38.828,6.4,-188
11:20:38.828,6.76,-184
11:20:38.878,8.25,-181
11:20:38.878,11.07,-172
11:20:38.912,16.68,-163
11:20:38.912,22.08,-154
11:20:38.948,24.56,-142
11:20:38.948,24.32,-132
11:20:38.981,22.04,-123
11:20:38.981,17.11,-116
11:20:39.03,11.57,-108
11:20:39.03,6.25,-101
11:20:39.064,4.09,-93
11:20:39.064,3.21,-89
11:20:39.098,4.15,-86
11:20:39.098,5.31,-82
11:20:39.133,6.1,-79
11:20:39.18,6.89,-76
11:20:39.18,9.26,-76
11:20:39.18,12.49,-74
11:20:39.214,13.09,-73
11:20:39.248,13.06,-71
11:20:39.248,12.8,-70
11:20:39.295,13.47,-69
11:20:39.295,14.67,-68
11:20:39.33,14,-68
11:20:39.33,10.86,-67
11:20:39.364,6.98,-68
11:20:39.364,3.14,-68
11:20:39.398,33.97,-68
11:20:39.398,72.18,-68
11:20:39.447,-29.01,-68
11:20:39.447,-23.5,-70
11:20:39.482,-20.83,-72
11:20:39.482,-19.05,-72
11:20:39.531,-17.47,-72
11:20:39.531,-16.24,-73
11:20:39.58,-14.87,-76
11:20:39.58,-13.34,-85
11:20:39.58,-11.63,-102
11:20:39.614,-9.78,-119
11:20:39.649,-6.46,-133
11:20:39.649,-2.66,-147
11:20:39.681,-0.62,-159
11:20:39.681,0.02,-169
11:20:39.731,0.32,-176
11:20:39.731,-0.53,-184
11:20:39.765,-2.17,-188
11:20:39.765,-3.3,-192
11:20:39.814,-3.5,-191
11:20:39.814,-2.91,-189
11:20:39.848,-1.56,-182
11:20:39.848,1.52,-174
11:20:39.881,4.98,-161
11:20:39.881,7.9,-150
11:20:39.93,9.6,-140
11:20:39.93,9.75,-130
11:20:39.964,8.71,-121
11:20:39.964,7.13,-113
11:20:40.014,5.58,-107
11:20:40.014,4.46,-102
11:20:40.048,3.12,-97
11:20:40.048,2.48,-93
11:20:40.081,2.09,-89
11:20:40.081,1.6,-86
11:20:40.114,0.8,-83
11:20:40.148,0.15,-81
11:20:40.148,-0.11,-79
11:20:40.181,-0.29,-76
11:20:40.181,-0.24,-74
11:20:40.231,-0.36,-73
11:20:40.231,0.13,-73
11:20:40.278,1.08,-73
11:20:40.278,3.31,-72
11:20:40.278,4.12,-71
11:20:40.313,0.78,-72
11:20:40.347,-1.41,-71
11:20:40.347,-3.13,-71
11:20:40.396,23.04,-71
11:20:40.396,90.34,-71
11:20:40.396,-20.22,-72
11:20:40.431,-14.48,-72
11:20:40.465,-14.79,-73
11:20:40.465,-15.26,-75
11:20:40.514,-15.79,-74
11:20:40.514,-16.63,-75
11:20:40.547,-16.98,-79
11:20:40.547,-16.98,-88
11:20:40.581,-16.62,-103
11:20:40.581,-15.78,-119
11:20:40.614,-14.57,-135
11:20:40.647,-12.44,-147
11:20:40.647,-9.46,-159
11:20:40.681,-6.62,-169
11:20:40.681,-4.38,-180
11:20:40.731,-2.7,-188
11:20:40.731,-2.09,-195
11:20:40.764,-1.77,-196
11:20:40.764,-0.84,-196
11:20:40.813,1.14,-193
11:20:40.813,5.45,-187
11:20:40.848,11.65,-178
11:20:40.848,18.98,-166
11:20:40.881,22.87,-153
11:20:40.881,22.45,-144
11:20:40.914,21.26,-136
11:20:40.963,18.96,-128
11:20:40.963,15.79,-119
11:20:40.963,13.06,-111
11:20:40.998,9.82,-103
11:20:40.998,7.79,-96
11:20:41.047,6.72,-91
11:20:41.047,5.82,-87
11:20:41.081,5.58,-85
11:20:41.081,5.44,-82
11:20:41.114,5.35,-81
11:20:41.163,5.29,-78
11:20:41.163,5.24,-76
11:20:41.163,5.21,-74
11:20:41.198,5.68,-74
11:20:41.198,6.45,-73
11:20:41.247,8.54,-72
11:20:41.247,10.92,-72
11:20:41.295,9.58,-71
11:20:41.295,8.1,-70
11:20:41.33,5.83,-70
11:20:41.33,18.62,-70
11:20:41.365,78.39,-70
11:20:41.365,-31.36,-70
11:20:41.414,-25.5,-71
11:20:41.414,-22.19,-71
11:20:41.447,-20.65,-69
11:20:41.447,-21.18,-68
11:20:41.5,-21.12,-69
11:20:41.5,-20.86,-72
11:20:41.5,-19.42,-79
11:20:41.544,-17.49,-94
11:20:41.544,-14.21,-112
11:20:41.577,-10.62,-130
11:20:41.577,-5.64,-144
11:20:41.628,-0.04,-156
11:20:41.628,4.57,-165
11:20:41.663,6.75,-174
11:20:41.663,7.69,-181
11:20:41.714,7.45,-186
11:20:41.714,7.33,-188
11:20:41.714,7.7,-188
11:20:41.764,7.96,-186
11:20:41.764,9.08,-182
11:20:41.82,12.05,-173
11:20:41.82,16.86,-162
11:20:41.82,23.71,-151
11:20:41.865,25.99,-139
11:20:41.865,26,-128
11:20:41.913,23.88,-119
11:20:41.913,21.55,-112
11:20:41.947,18.44,-107
11:20:41.947,16.65,-102
11:20:41.981,14.94,-96
11:20:41.981,13.56,-92
11:20:42.014,11.41,-87
11:20:42.014,10.56,-83
11:20:42.047,10.69,-79
11:20:42.081,10.77,-77
11:20:42.081,10.62,-74
11:20:42.13,9.8,-72
11:20:42.13,9.43,-73
11:20:42.164,9.54,-70
11:20:42.164,10.13,-70
11:20:42.215,11.04,-68
11:20:42.215,9.95,-67
11:20:42.215,6.51,-66
11:20:42.263,2.98,-66
11:20:42.263,-1.63,-67
11:20:42.314,54.4,-68
11:20:42.314,10.27,-67
11:20:42.363,-35.35,-66
11:20:42.363,-29.15,-66
11:20:42.363,-27.87,-67
11:20:42.397,-26.25,-68
11:20:42.397,-24.69,-68
11:20:42.431,-22.73,-69
11:20:42.465,-19.67,-74
11:20:42.465,-16.63,-86
11:20:42.512,-13.08,-105
11:20:42.512,-8.7,-123
11:20:42.512,-4.65,-138
11:20:42.548,-1.09,-153
11:20:42.581,1.66,-163
11:20:42.581,3.06,-171
11:20:42.615,2.32,-180
11:20:42.615,1.62,-185
11:20:42.663,1.18,-189
11:20:42.663,0.66,-190
11:20:42.715,0.51,-189
11:20:42.715,1.57,-187
11:20:42.715,3.52,-181
11:20:42.748,6.95,-172
11:20:42.795,11.27,-160
11:20:42.795,15.66,-150
11:20:42.795,16.76,-140
11:20:42.831,16.12,-130
11:20:42.864,14.57,-120
11:20:42.864,12.83,-113
11:20:42.914,10.59,-107
11:20:42.914,7.53,-104
11:20:42.947,4.93,-99
11:20:42.947,2.98,-94
11:20:42.981,2.24,-91
11:20:42.981,1.86,-86
11:20:43.03,1.38,-83
11:20:43.03,1.06,-81
11:20:43.064,0.84,-78
11:20:43.064,0.68,-74
11:20:43.098,0.56,-72
11:20:43.098,0.48,-70
11:20:43.148,0.55,-69
11:20:43.148,0.61,-69
11:20:43.18,1.24,-70
11:20:43.18,1.97,-70
11:20:43.228,0.68,-70
11:20:43.228,-1.15,-70
11:20:43.275,-2.59,-70
11:20:43.275,3.71,-70
11:20:43.275,64.77,-70
11:20:43.322,-35.75,-70
11:20:43.322,-31.4,-71
11:20:43.369,-28.87,-72
11:20:43.369,-27.57,-73
11:20:43.415,-26.62,-75
11:20:43.415,-25.16,-74
11:20:43.415,-23.21,-76
11:20:43.461,-20.1,-84
11:20:43.461,-16.12,-100
11:20:43.508,-12.53,-118
11:20:43.508,-8.74,-134
11:20:43.554,-3.89,-148
11:20:43.554,0.41,-160
11:20:43.554,4.03,-170
11:20:43.6,7.21,-180
11:20:43.6,9.3,-188
11:20:43.648,10.36,-192
11:20:43.648,10.57,-195
11:20:43.696,10.42,-196
11:20:43.696,10.55,-194
11:20:43.696,12.31,-186
11:20:43.742,15.15,-176
11:20:43.742,19.36,-165
11:20:43.778,22.7,-153
11:20:43.778,23.7,-144
11:20:43.814,22.41,-133
11:20:43.814,19.37,-124
11:20:43.847,16.14,-117
11:20:43.88,12.35,-110
11:20:43.88,9.54,-101
11:20:43.914,8.89,-94
11:20:43.914,8.6,-88
11:20:43.963,8.44,-83
11:20:43.963,8.78,-80
11:20:43.998,8.63,-77
11:20:43.998,9.05,-74
11:20:44.031,9.22,-72
11:20:44.064,9.02,-72
11:20:44.064,9.02,-71
11:20:44.113,9.28,-67
11:20:44.113,9.52,-67
11:20:44.113,10.43,-66
11:20:44.147,10.54,-65
11:20:44.199,8.3,-64
11:20:44.199,3.72,-63
11:20:44.199,-1.68,-63
11:20:44.246,3.07,-63
11:20:44.246,63.98,-63
11:20:44.295,-45.38,-64
11:20:44.295,-38.58,-62
11:20:44.295,-35.76,-63
11:20:44.328,-33.03,-63
11:20:44.364,-31.31,-63
11:20:44.364,-27.82,-63
11:20:44.414,-24.12,-64
11:20:44.414,-19.21,-71
11:20:44.414,-14.77,-87
11:20:44.447,-11.51,-106
11:20:44.481,-7.27,-124
11:20:44.481,-3.42,-140
11:20:44.514,-0.47,-153
11:20:44.514,1.02,-164
11:20:44.546,2.11,-172
11:20:44.58,2.72,-178
11:20:44.58,2.8,-182
11:20:44.63,3.29,-184
11:20:44.63,3.65,-184
11:20:44.664,5.12,-181
11:20:44.664,7.66,-178
11:20:44.714,12.51,-170
11:20:44.714,18.6,-160
11:20:44.714,23.95,-148
11:20:44.748,25.51,-139
11:20:44.799,25.71,-127
11:20:44.799,23.72,-118
11:20:44.799,21.83,-109
11:20:44.847,19.15,-102
11:20:44.847,16.44,-96
11:20:44.881,13.12,-93
11:20:44.881,10.96,-89
11:20:44.914,8.26,-87
11:20:44.914,6.56,-83
11:20:44.947,5.64,-80
11:20:44.997,5.13,-77
11:20:44.997,5.09,-75
11:20:44.997,5.07,-74
11:20:45.031,5.24,-72
11:20:45.031,5.68,-72
11:20:45.08,6.42,-71
11:20:45.08,7.72,-69
11:20:45.114,9.75,-68
11:20:45.114,7.97,-67
11:20:45.163,5.35,-67
11:20:45.163,3.37,-68
11:20:45.197,7.23,-66
11:20:45.197,65.36,-66
11:20:45.231,-32.35,-66
11:20:45.231,-31.12,-66
11:20:45.28,-29.53,-66
11:20:45.28,-28.52,-66
11:20:45.328,-27.68,-68
11:20:45.328,-26.89,-70
11:20:45.363,-25.56,-73
11:20:45.363,-23.38,-80
11:20:45.397,-20.23,-92
11:20:45.397,-16.19,-109
11:20:45.431,-11.67,-124
11:20:45.431,-6.15,-139
11:20:45.464,-2.03,-151
11:20:45.497,1.82,-162
11:20:45.497,4.68,-173
11:20:45.532,6.1,-182
11:20:45.532,6.79,-186
11:20:45.58,7.16,-189
11:20:45.58,7.37,-189
11:20:45.613,8.37,-189
11:20:45.613,10.67,-184
11:20:45.663,13.65,-175
11:20:45.663,17.22,-163
11:20:45.697,20.53,-150
11:20:45.697,22.02,-138
11:20:45.732,21.28,-128
11:20:45.732,18.75,-118
11:20:45.78,15.25,-112
11:20:45.78,10.58,-107
11:20:45.814,6.09,-100
11:20:45.814,3.18,-95
11:20:45.847,1.8,-90
11:20:45.896,0.78,-85
11:20:45.896,0.53,-81
11:20:45.896,0.14,-78
11:20:45.93,0.11,-76
11:20:45.93,0.09,-73
11:20:45.964,0.07,-70
11:20:45.998,0.06,-69
11:20:45.998,0.06,-68
11:20:46.046,0.16,-68
11:20:46.046,0.68,-66
11:20:46.08,1.68,-66
11:20:46.08,3.28,-67
11:20:46.114,1.65,-65
11:20:46.114,-0.03,-64
11:20:46.163,-0.66,-64
11:20:46.163,5.58,-66
11:20:46.197,66.87,-65
11:20:46.197,-35.5,-66
11:20:46.231,-33.21,-68
11:20:46.231,-30.43,-68
11:20:46.28,-27.99,-68
11:20:46.28,-25.95,-69
11:20:46.328,-23.69,-71
11:20:46.328,-21.54,-71
11:20:46.363,-19.11,-77
11:20:46.363,-17.93,-91
11:20:46.397,-16.62,-107
11:20:46.397,-14.52,-121
11:20:46.431,-10.55,-136
11:20:46.431,-5.2,-148
11:20:46.464,-1.18,-159
11:20:46.513,1.73,-169
11:20:46.513,3.15,-177
11:20:46.513,4.19,-181
11:20:46.548,4.77,-183
11:20:46.548,5.65,-185
11:20:46.581,7.61,-183
11:20:46.63,9.31,-177
11:20:46.63,14.77,-169
11:20:46.664,21.4,-158
11:20:46.664,28.08,-146
11:20:46.713,29.67,-136
11:20:46.713,28.57,-126
11:20:46.713,26.31,-119
11:20:46.748,23.3,-112
11:20:46.798,20.78,-105
11:20:46.798,17.72,-98
11:20:46.798,14.95,-92
11:20:46.846,13.34,-88
11:20:46.846,11.76,-83
11:20:46.846,10.82,-79
11:20:46.881,10.27,-76
11:20:46.915,10.46,-73
11:20:46.915,10.58,-72
11:20:46.961,10.47,-69
11:20:46.961,10.23,-68
11:20:46.996,10.03,-68
11:20:46.996,10.48,-67
11:20:47.044,11.56,-66
11:20:47.044,11.01,-66
11:20:47.078,8.25,-67
11:20:47.078,5.22,-65
11:20:47.114,0.1,-64
11:20:47.114,49.28,-65
11:20:47.163,39.76,-66
11:20:47.163,-16.6,-66
11:20:47.197,-22.98,-66
11:20:47.197,-21.79,-67
11:20:47.23,-21.04,-69
11:20:47.23,-21.03,-69
11:20:47.279,-19.78,-69
11:20:47.279,-18.2,-71
11:20:47.314,-16.34,-79
11:20:47.314,-14.26,-92
11:20:47.362,-14.87,-110
11:20:47.362,-15.49,-124
11:20:47.411,-15.36,-141
11:20:47.411,-15.28,-154
11:20:47.411,-14.5,-164
11:20:47.447,-13.37,-172
11:20:47.496,-12.31,-178
11:20:47.496,-11.2,-183
11:20:47.496,-9.26,-184
11:20:47.53,-6.64,-184
11:20:47.53,-3.47,-181
11:20:47.565,1.59,-176
11:20:47.611,8.94,-167
11:20:47.611,14.45,-158
11:20:47.611,17.88,-146
11:20:47.646,18.86,-136
11:20:47.68,17.83,-125
11:20:47.68,15.99,-115
11:20:47.714,13.65,-109
11:20:47.714,10.88,-102
11:20:47.764,8.2,-97
11:20:47.764,6.14,-92
11:20:47.813,4.96,-88
11:20:47.813,4.31,-84
11:20:47.813,3.94,-82
11:20:47.847,3.95,-80
11:20:47.847,4.16,-78
11:20:47.896,4.66,-76
11:20:47.896,5.1,-73
11:20:47.931,5.45,-73
11:20:47.931,5.92,-73
11:20:47.965,6.49,-73
11:20:48.013,7.57,-72
11:20:48.013,10.23,-71
11:20:48.013,11.82,-72
11:20:48.047,8.25,-72
11:20:48.047,6.11,-73
11:20:48.096,4.54,-73
11:20:48.096,25.75,-73
11:20:48.13,77.19,-73
11:20:48.13,-23.76,-72
11:20:48.18,-19.4,-72
11:20:48.18,-18.02,-73
11:20:48.214,-17.18,-75
11:20:48.214,-16.79,-74
11:20:48.247,-16.03,-75
11:20:48.247,-14.99,-76
11:20:48.282,-13.4,-83
11:20:48.329,-11.19,-96
11:20:48.329,-9.08,-111
11:20:48.329,-6.2,-126
11:20:48.378,-2.21,-140
11:20:48.378,1.42,-154
11:20:48.412,3.91,-164
11:20:48.412,5.58,-173
11:20:48.448,7.2,-182
11:20:48.448,7.82,-186
11:20:48.496,7.87,-188
11:20:48.496,8.36,-187
11:20:48.53,9.58,-184
11:20:48.53,11.96,-179
11:20:48.564,16.25,-169
11:20:48.613,21.75,-158
11:20:48.613,25.84,-146
11:20:48.613,24.97,-137
11:20:48.647,21.74,-130
11:20:48.647,17.38,-122
11:20:48.68,11.73,-115
11:20:48.73,5.8,-108
11:20:48.73,0.67,-102
11:20:48.73,-2.73,-96
11:20:48.764,-3.77,-92
11:20:48.812,-4.93,-88
11:20:48.812,-5.6,-85
11:20:48.812,-5.99,-82
11:20:48.847,-5.99,-79
11:20:48.847,-6,-77
11:20:48.896,-5.83,-75
11:20:48.896,-5.4,-74
11:20:48.93,-4.68,-74
11:20:48.93,-3.41,-72
11:20:48.964,-0.9,-71
11:20:49.013,4.02,-71
11:20:49.013,4.46,-71
11:20:49.013,2.32,-71
11:20:49.047,1.85,-71
11:20:49.047,1.32,-72
11:20:49.08,31.07,-71
11:20:49.114,16.51,-70
11:20:49.114,-18.31,-71
11:20:49.147,-24.51,-71
11:20:49.147,-23.62,-71
11:20:49.196,-22.56,-72
11:20:49.196,-21.36,-71
11:20:49.231,-19.99,-72
11:20:49.231,-17.51,-75
11:20:49.279,-15.17,-85
11:20:49.279,-9.9,-99
11:20:49.315,-5.69,-113
11:20:49.315,0.3,-130
11:20:49.362,4.28,-143
11:20:49.362,7.97,-155
11:20:49.412,8.44,-165
11:20:49.412,8.29,-175
11:20:49.412,8.22,-181
11:20:49.447,7.54,-185
11:20:49.447,6.99,-188
11:20:49.48,6.99,-186
11:20:49.515,7.34,-182
11:20:49.515,8.51,-172
11:20:49.547,11.79,-162
11:20:49.547,16.49,-151
11:20:49.58,20.8,-139
11:20:49.614,21.36,-130
11:20:49.614,19.17,-122
11:20:49.647,15.86,-116
11:20:49.647,13.06,-109
11:20:49.694,10.59,-103
11:20:49.694,7.98,-96
11:20:49.743,6.01,-91
11:20:49.743,4.89,-88
11:20:49.743,4.6,-85
11:20:49.778,4.44,-82
11:20:49.812,5,-80
11:20:49.812,5,-79
11:20:49.846,5.35,-77
11:20:49.846,5.29,-75
11:20:49.881,5.4,-75
11:20:49.914,5.77,-73
11:20:49.914,6.56,-72
11:20:49.963,7.95,-71
11:20:49.963,5.99,-70
11:20:49.997,2.01,-70
11:20:49.997,-1.3,-69
11:20:50.032,-1.17,-69
11:20:50.032,44.36,-69
11:20:50.079,-26.43,-69
11:20:50.079,-32.26,-69
11:20:50.114,-30.32,-70
11:20:50.114,-26.65,-70
11:20:50.163,-23.23,-70
11:20:50.163,-19.6,-70
11:20:50.197,-15.77,-71
11:20:50.197,-12.7,-76
11:20:50.23,-10.24,-87
11:20:50.23,-7.72,-100
11:20:50.279,-5.45,-117
11:20:50.279,-3.74,-132
11:20:50.314,-2.41,-147
11:20:50.314,-1.62,-159
11:20:50.36,-1.73,-168
11:20:50.36,-2.25,-176
11:20:50.394,-3.52,-183
11:20:50.394,-4.68,-186
11:20:50.429,-5.58,-187
11:20:50.429,-5.96,-184
11:20:50.465,-4.8,-180
11:20:50.465,-2.01,-171
11:20:50.513,2.89,-161
11:20:50.513,8.87,-153
11:20:50.562,12.53,-143
11:20:50.562,13.69,-133
11:20:50.595,12.33,-127
11:20:50.595,10.88,-120
11:20:50.63,8.97,-114
11:20:50.63,7.28,-108
11:20:50.665,6.17,-102
11:20:50.665,4.88,-96
11:20:50.713,4.31,-92
11:20:50.713,3.96,-88
11:20:50.746,4.2,-86
11:20:50.746,4.36,-83
11:20:50.78,4.84,-82
11:20:50.829,5.42,-80
11:20:50.829,5.93,-78
11:20:50.829,6.34,-78
11:20:50.88,7.24,-78
11:20:50.88,8.29,-77
11:20:50.915,9.93,-76
11:20:50.915,11.99,-75
11:20:50.963,9.67,-74
11:20:50.963,6.19,-73
11:20:50.963,3.62,-73
11:20:51.013,4.58,-74
11:20:51.013,51.88,-74
11:20:51.047,-19,-75
11:20:51.047,-25.22,-74
11:20:51.096,-24.48,-74
11:20:51.096,-23.89,-75
11:20:51.13,-23.61,-76
11:20:51.13,-22.68,-74
11:20:51.179,-20.7,-74
11:20:51.179,-17.34,-80
11:20:51.213,-13.66,-91
11:20:51.213,-9.49,-104
11:20:51.248,-5.59,-119
11:20:51.248,-0.72,-134
11:20:51.296,4,-148
11:20:51.296,6.45,-160
11:20:51.344,7.53,-170
11:20:51.344,8.39,-178
11:20:51.344,9.18,-183
11:20:51.377,9.68,-187
11:20:51.411,10,-188
11:20:51.411,10.66,-187
11:20:51.447,12.28,-182
11:20:51.447,14.97,-173
11:20:51.48,19.92,-163
11:20:51.529,24.55,-153
11:20:51.529,25.72,-144
11:20:51.529,24.71,-133
11:20:51.563,21.9,-123
11:20:51.563,16.29,-115
11:20:51.598,8.9,-108
11:20:51.646,1.25,-101
11:20:51.646,-2.87,-95
11:20:51.646,-3.92,-91
11:20:51.68,-5.08,-88
11:20:51.713,-5.05,-85
11:20:51.713,-5.79,-83
11:20:51.747,-5.59,-81
11:20:51.747,-4.85,-78
11:20:51.78,-3.56,-78
11:20:51.813,-2.38,-77
11:20:51.813,0.19,-76
11:20:51.863,3.24,-74
11:20:51.863,9.46,-73
11:20:51.863,17.8,-74
11:20:51.897,21.92,-74
11:20:51.944,22.46,-73
11:20:51.944,22.29,-72
11:20:51.944,23.57,-71
11:20:51.98,32.8,-72
11:20:52.029,103.48,-71
11:20:52.029,-6.55,-72
11:20:52.029,5.95,-72
11:20:52.064,10.09,-73
11:20:52.064,14.23,-74
11:20:52.112,16.06,-72
11:20:52.112,18.83,-74
11:20:52.164,20.92,-75
11:20:52.164,23.23,-81
11:20:52.196,25.04,-93
11:20:52.196,25.74,-110
11:20:52.23,26.12,-126
11:20:52.23,25.84,-140
11:20:52.264,24.56,-152
11:20:52.264,21.58,-161
11:20:52.313,14.23,-170
11:20:52.313,4.19,-179
11:20:52.362,-8.01,-185
11:20:52.362,-21.57,-188
11:20:52.362,-29.86,-190
11:20:52.409,-33.54,-189
11:20:52.409,-34.26,-184
11:20:52.445,-34.53,-175
11:20:52.445,-34.1,-165
11:20:52.494,-34.56,-154
11:20:52.494,-35.56,-146
11:20:52.529,-37.38,-137
11:20:52.529,-39.96,-127
11:20:52.563,-44.63,-118
11:20:52.563,-49.31,-110
11:20:52.613,-52.52,-105
11:20:52.613,-54.07,-100
11:20:52.647,-54.79,-97
11:20:52.647,-53.93,-93
11:20:52.68,-53.38,-90
11:20:52.729,-51.77,-87
11:20:52.729,-48.91,-83
11:20:52.729,-44.55,-80
11:20:52.763,-40.29,-80
11:20:52.763,-35.97,-79
11:20:52.813,-31.73,-78
11:20:52.813,-24.29,-77
11:20:52.848,-13.7,-76
11:20:52.848,-10.8,-75
11:20:52.896,-14.22,-75
11:20:52.896,-14.57,-76
11:20:52.931,-14.39,-76
11:20:52.931,7.27,-77
11:20:52.979,55.21,-77
11:20:52.979,-32.97,-76
11:20:52.979,-24.84,-77
11:20:53.014,-21.15,-79
11:20:53.063,-16.57,-79
11:20:53.063,-13.36,-78
11:20:53.063,-9.17,-79
11:20:53.097,-4.45,-82
11:20:53.13,1.57,-91
11:20:53.13,7.52,-105
11:20:53.163,12.52,-120
11:20:53.163,17.83,-134
11:20:53.197,23.52,-146
11:20:53.246,28.44,-157
11:20:53.246,31.74,-168
11:20:53.246,33.22,-178
11:20:53.293,33.89,-186
11:20:53.293,34.54,-190
11:20:53.34,34.93,-192
11:20:53.34,36.61,-192
11:20:53.34,40.18,-188
11:20:53.387,45.99,-181
11:20:53.387,53.89,-174
11:20:53.433,59.01,-164
11:20:53.433,60.04,-155
11:20:53.481,57.73,-144
11:20:53.481,54.02,-134
11:20:53.481,46.72,-124
11:20:53.527,37.21,-116
11:20:53.527,28.71,-108
11:20:53.573,21.78,-103
11:20:53.573,16.28,-99
11:20:53.62,12.45,-95
11:20:53.62,9.38,-91
11:20:53.62,7.01,-87
11:20:53.667,4.99,-84
11:20:53.667,2.73,-81
11:20:53.714,1.7,-78
11:20:53.714,0.18,-77
11:20:53.761,-0.85,-75
11:20:53.761,-0.89,-75
11:20:53.761,-0.68,-73
11:20:53.811,0.06,-73
11:20:53.811,2.21,-71
11:20:53.844,2.15,-69
11:20:53.844,-0.71,-70
11:20:53.88,-3.55,-70
11:20:53.88,-7.19,-69
11:20:53.93,25.45,-70
11:20:53.93,51.06,-71
11:20:53.979,-29.07,-71
11:20:53.979,-34.39,-72
11:20:53.979,-32.4,-74
11:20:54.014,-30.02,-74
11:20:54.063,-27.99,-74
11:20:54.063,-25.73,-75
11:20:54.063,-23.57,-79
11:20:54.098,-21.5,-88
11:20:54.098,-19.12,-102
11:20:54.146,-15.3,-118
11:20:54.146,-10.86,-131
11:20:54.18,-5.79,-145
11:20:54.18,-1.45,-160
11:20:54.212,0.21,-171
11:20:54.246,0.91,-182
11:20:54.246,0.62,-189
11:20:54.28,-0.05,-193
11:20:54.28,0.45,-195
11:20:54.329,1.26,-194
11:20:54.329,3.09,-190
11:20:54.377,6.6,-184
11:20:54.377,11.86,-175
11:20:54.412,18.63,-162
11:20:54.412,25.26,-150
11:20:54.446,25.12,-138
11:20:54.446,24,-129
11:20:54.48,21.76,-122
11:20:54.48,18.67,-116
11:20:54.513,14.43,-110
11:20:54.547,11.07,-102
11:20:54.547,9.28,-97
11:20:54.596,7.26,-91
11:20:54.596,6.06,-86
11:20:54.63,4.4,-82
11:20:54.63,3.27,-79
11:20:54.664,2.27,-77
11:20:54.664,2.19,-73
11:20:54.712,2.15,-73
11:20:54.712,3.07,-72
11:20:54.747,4.15,-71
11:20:54.747,7.57,-71
11:20:54.796,12.55,-72
11:20:54.796,14.15,-71
11:20:54.83,10.63,-69
11:20:54.83,8.67,-69
11:20:54.863,5.35,-68
11:20:54.863,46.89,-68
11:20:54.897,55.19,-68
11:20:54.946,0.28,-68
11:20:54.946,-8.56,-68
11:20:54.946,-5.03,-68
11:20:54.995,-2.03,-70
11:20:54.995,1.53,-71
11:20:55.031,7.51,-71
11:20:55.031,11.34,-74
11:20:55.079,15.89,-81
11:20:55.079,21.72,-96
11:20:55.114,27.53,-114
11:20:55.114,30.39,-128
11:20:55.162,32.45,-143
11:20:55.162,33.85,-156
11:20:55.162,32.51,-167
11:20:55.211,30.72,-179
11:20:55.211,28.8,-187
11:20:55.244,25.76,-192
11:20:55.244,22.31,-193
11:20:55.295,20.06,-194
11:20:55.295,20.03,-190
11:20:55.33,21.16,-186
11:20:55.33,22.82,-179
11:20:55.381,24.42,-169
11:20:55.381,25.89,-158
11:20:55.381,25.92,-146
11:20:55.429,24.73,-136
11:20:55.429,22.4,-129
11:20:55.461,18.27,-122
11:20:55.461,11.32,-115
11:20:55.496,1.63,-109
11:20:55.53,-6.54,-103
11:20:55.53,-12.09,-99
11:20:55.579,-16.3,-94
11:20:55.579,-20.55,-90
11:20:55.613,-24.11,-88
11:20:55.613,-26.33,-83
11:20:55.662,-28.21,-79
11:20:55.662,-29.99,-77
11:20:55.662,-31.42,-76
11:20:55.698,-32.94,-74
11:20:55.698,-33.61,-73
11:20:55.746,-32.87,-72
11:20:55.746,-31.33,-70
11:20:55.779,-34.18,-69
11:20:55.779,-37.78,-70
11:20:55.813,-38.71,-70
11:20:55.847,-34.73,-71
11:20:55.847,24.58,-71
11:20:55.896,-66.65,-73
11:20:55.896,-64.24,-74
11:20:55.896,-61.44,-74
11:20:55.931,-58.1,-75
11:20:55.979,-55.42,-74
11:20:55.979,-51.93,-76
11:20:55.979,-47.63,-76
11:20:56.013,-40.86,-81
11:20:56.046,-34.01,-93
11:20:56.046,-27.96,-109
11:20:56.08,-21.02,-127
11:20:56.08,-13.29,-143
11:20:56.113,-6.29,-158
11:20:56.147,-2.21,-171
11:20:56.147,0.84,-183
11:20:56.196,3.57,-191
11:20:56.196,5.42,-197
11:20:56.23,6.39,-200
11:20:56.23,8.19,-199
11:20:56.279,11.13,-196
11:20:56.279,16.09,-189
11:20:56.279,22.14,-180
11:20:56.313,28.28,-170
11:20:56.347,32.91,-159
11:20:56.347,33.45,-146
11:20:56.396,32.94,-136
11:20:56.396,30.64,-124
11:20:56.396,26.66,-116
11:20:56.444,22.98,-109
11:20:56.444,19.45,-104
11:20:56.479,17.03,-101
11:20:56.479,16.21,-96
11:20:56.513,15.48,-92
11:20:56.546,15.06,-88
11:20:56.546,14.8,-84
11:20:56.58,14.41,-80
11:20:56.58,14.53,-78
11:20:56.613,14.97,-76
11:20:56.663,15.51,-72
11:20:56.663,16.18,-71
11:20:56.663,17.16,-70
11:20:56.696,19.21,-69
11:20:56.696,24.02,-68
11:20:56.73,23.13,-68
11:20:56.763,18.94,-68
11:20:56.763,15.93,-69
11:20:56.801,13.84,-71
11:20:56.801,65.8,-71
11:20:56.843,4.06,-71
11:20:56.843,-17.88,-71
11:20:56.878,-17.97,-72
11:20:56.878,-16.68,-71
11:20:56.912,-16.44,-71
11:20:56.961,-15.76,-71
11:20:56.961,-14.8,-70
11:20:56.961,-12.76,-75
11:20:56.995,-9.67,-87
11:20:57.029,-6.71,-104
11:20:57.029,-3.18,-121
11:20:57.062,1.64,-138
11:20:57.062,6.11,-151
11:20:57.097,7.98,-162
11:20:57.097,11.59,-173
11:20:57.146,11.77,-182
11:20:57.146,11.22,-190
11:20:57.18,10.62,-195
11:20:57.18,9.49,-196
11:20:57.213,9.36,-195
11:20:57.262,9.5,-190
11:20:57.262,11.09,-182
11:20:57.262,13.65,-170
11:20:57.297,16.82,-158
11:20:57.297,18.87,-145
11:20:57.346,18.17,-136
11:20:57.346,16.88,-126
11:20:57.38,14.49,-118
11:20:57.38,12.2,-110
11:20:57.427,8.82,-102
11:20:57.427,6.41,-95
11:20:57.461,4.27,-91
11:20:57.461,3.03,-86
11:20:57.497,2.02,-83
11:20:57.497,1.41,-82
11:20:57.546,0.23,-78
11:20:57.546,-0.39,-76
11:20:57.58,-0.8,-73
11:20:57.58,-0.85,-72
11:20:57.613,-0.69,-70
11:20:57.663,0.11,-70
11:20:57.663,1.68,-70
11:20:57.663,3.87,-69
11:20:57.696,2.61,-68
11:20:57.696,0.25,-68
11:20:57.73,-0.55,-67
11:20:57.763,2.64,-67
11:20:57.763,58.71,-66
11:20:57.797,-31.02,-67
11:20:57.797,-28.28,-68
11:20:57.846,-25.42,-69
11:20:57.846,-22.97,-69
11:20:57.894,-20.92,-69
11:20:57.894,-18.67,-70
11:20:57.894,-16.53,-71
11:20:57.944,-13.73,-78
11:20:57.944,-10.29,-93
11:20:57.993,-6.77,-111
11:20:57.993,-3.81,-129
11:20:57.993,-0.5,-146
11:20:58.027,2.29,-159
11:20:58.061,3,-172
11:20:58.061,2.67,-183
11:20:58.096,2.23,-193
11:20:58.096,1.7,-199
11:20:58.145,1.1,-202
11:20:58.145,0.63,-202
11:20:58.18,0.71,-198
11:20:58.18,1.66,-190
11:20:58.213,3.03,-181
11:20:58.213,5.62,-170
11:20:58.262,9.17,-157
11:20:58.262,11.57,-144
11:20:58.296,12.13,-133
11:20:58.296,10.85,-125
11:20:58.345,9.06,-117
11:20:58.345,6.11,-111
11:20:58.396,3,-104
11:20:58.396,0.13,-99
11:20:58.396,-2.8,-95
11:20:58.444,-4.12,-89
11:20:58.444,-5.14,-85
11:20:58.478,-5.72,-83
11:20:58.478,-6.06,-80
11:20:58.511,-6.28,-78
11:20:58.544,-6.23,-76
11:20:58.544,-6.01,-75
11:20:58.579,-5.69,-75
11:20:58.579,-5.08,-73
11:20:58.613,-3.79,-71
11:20:58.646,-0.98,-71
11:20:58.646,2.09,-70
11:20:58.695,-0.31,-70
11:20:58.695,-2.13,-70
11:20:58.695,-2.81,-70
11:20:58.744,7.37,-70
11:20:58.744,73.7,-70
11:20:58.779,-36.67,-70
11:20:58.779,-27.75,-70
11:20:58.813,-25.33,-73
11:20:58.862,-23.77,-73
11:20:58.862,-23.47,-74
11:20:58.862,-22.45,-72
11:20:58.897,-20.06,-74
11:20:58.897,-16.61,-80
11:20:58.944,-12.69,-94
11:20:58.944,-8.39,-113
11:20:58.977,-4.47,-130
11:20:58.977,-0.1,-145
11:20:59.013,3.26,-158
11:20:59.013,4.93,-172
11:20:59.062,5.72,-183
11:20:59.062,5.18,-193
11:20:59.096,4.86,-198
11:20:59.096,4.43,-201
11:20:59.146,4.34,-199
11:20:59.146,4.46,-195
11:20:59.18,5.69,-188
11:20:59.18,8.66,-179
11:20:59.213,13.91,-165
11:20:59.213,20.45,-153
11:20:59.262,26.02,-141
11:20:59.262,26.53,-132
11:20:59.297,26.34,-123
11:20:59.297,24.58,-114
11:20:59.346,24.4,-107
11:20:59.346,23.31,-101
11:20:59.38,21.91,-94
11:20:59.38,20.79,-87
11:20:59.427,20.85,-81
11:20:59.427,20.66,-78
11:20:59.461,20.53,-75
11:20:59.461,20.78,-72
11:20:59.513,20.32,-70
11:20:59.513,20.27,-69
11:20:59.513,20.38,-67
11:20:59.562,20.18,-66
11:20:59.562,20.71,-66
11:20:59.596,22.04,-67
11:20:59.596,22.03,-67
11:20:59.646,18.87,-67
11:20:59.646,13.24,-65
11:20:59.696,6.5,-64
11:20:59.696,29.2,-64
11:20:59.696,80.65,-63
11:20:59.729,-42.13,-63
11:20:59.729,-36.43,-61
11:20:59.765,-36.17,-62
11:20:59.813,-35.72,-62
11:20:59.813,-35.81,-63
11:20:59.813,-35.38,-63
11:20:59.862,-34.86,-66
11:20:59.862,-32.98,-75
11:20:59.896,-30.12,-91
11:20:59.896,-25.35,-111
11:20:59.946,-19.25,-129
11:20:59.946,-11.9,-146
11:20:59.98,-6.95,-160
11:20:59.98,-4.93,-169
11:21:00.013,-3.71,-178
11:21:00.013,-2.76,-185
11:21:00.047,-2.83,-190
11:21:00.095,-3.11,-194
11:21:00.095,-3.09,-195
11:21:00.095,-2.37,-194
11:21:00.129,-0.91,-187
11:21:00.163,1.38,-178
11:21:00.163,4.85,-168
11:21:00.196,8.53,-155
11:21:00.196,10.48,-142
11:21:00.245,11.07,-131
11:21:00.245,9.5,-120
11:21:00.279,8.39,-110
11:21:00.279,7.38,-105
11:21:00.313,6.41,-99
11:21:00.313,5.46,-94
11:21:00.362,4.26,-89
11:21:00.362,3.06,-84
11:21:00.412,2.18,-80
11:21:00.412,1.59,-76
11:21:00.446,1.19,-74
11:21:00.446,0.93,-72
11:21:00.48,0.74,-71
11:21:00.48,0.79,-69
11:21:00.529,0.98,-66
11:21:00.529,1.42,-63
11:21:00.563,2.33,-58
11:21:00.563,4.88,-56
11:21:00.597,6.8,-56
11:21:00.597,4.18,-58
11:21:00.644,2.62,-61
11:21:00.644,1.71,-64
11:21:00.68,20.97,-66
11:21:00.68,72.77,-69
11:21:00.729,-27,-71
11:21:00.729,-22.42,-71
11:21:00.765,-20.44,-71
11:21:00.765,-19.37,-70
11:21:00.811,-18.89,-69
11:21:00.811,-18.06,-70
11:21:00.811,-16.43,-75
11:21:00.845,-13.88,-85
11:21:00.878,-10.35,-102
11:21:00.878,-6.46,-121
11:21:00.913,-2.69,-138
11:21:00.913,2.13,-152
11:21:00.946,4.97,-164
11:21:00.996,6.72,-174
11:21:00.996,8.34,-184
11:21:00.996,8.57,-191
11:21:01.03,8.69,-194
11:21:01.03,8.76,-199
11:21:01.079,8.62,-197
11:21:01.079,9.35,-192
11:21:01.113,11.02,-184
11:21:01.113,13.93,-175
11:21:01.162,18.24,-167
11:21:01.162,21.66,-158
11:21:01.196,21.37,-147
11:21:01.196,20.3,-137
11:21:01.23,18.71,-130
11:21:01.23,15.67,-122
11:21:01.263,11.21,-115
11:21:01.298,6.58,-110
11:21:01.298,2.96,-105
11:21:01.345,0.24,-99
11:21:01.345,-0.71,-93
11:21:01.395,-2.17,-88
11:21:01.395,-2.77,-84
11:21:01.395,-3.39,-79
11:21:01.431,-4.31,-76
11:21:01.431,-4.74,-74
11:21:01.477,-4.57,-70
11:21:01.477,-3.86,-69
11:21:01.512,-1.76,-68
11:21:01.512,1.73,-66
11:21:01.546,4.58,-64
11:21:01.579,3.14,-64
11:21:01.579,0.96,-63
11:21:01.629,0.98,-62
11:21:01.629,10.08,-62
11:21:01.663,74.93,-61
11:21:01.663,-29.18,-62
11:21:01.712,-17.99,-63
11:21:01.712,-14.64,-63
11:21:01.712,-12.82,-62
11:21:01.746,-11.27,-63
11:21:01.795,-8.65,-62
11:21:01.795,-6.11,-64
11:21:01.795,-3.73,-74
11:21:01.831,-1.13,-90
11:21:01.879,0.88,-109
11:21:01.879,3.9,-127
11:21:01.879,7.17,-142
11:21:01.913,10.47,-156
11:21:01.913,11.56,-167
11:21:01.946,11.01,-177
11:21:01.993,10.43,-184
11:21:01.993,9.29,-191
11:21:01.993,8.4,-194
11:21:02.028,6.44,-194
11:21:02.063,5.99,-191
11:21:02.063,6.52,-182
11:21:02.096,7.85,-173
11:21:02.096,9.25,-161
11:21:02.131,11.22,-148
11:21:02.131,13.45,-135
11:21:02.179,14.35,-127
11:21:02.179,13.01,-119
11:21:02.228,11.78,-112
11:21:02.228,9.74,-106
11:21:02.228,7.15,-100
11:21:02.277,4.11,-94
11:21:02.277,2.05,-88
11:21:02.312,0.13,-84
11:21:02.312,-1,-81
11:21:02.346,-2.29,-79
11:21:02.379,-2.82,-77
11:21:02.379,-3.14,-75
11:21:02.428,-3.11,-74
11:21:02.428,-2.9,-72
11:21:02.428,-2.39,-71
11:21:02.462,-0.86,-72
11:21:02.51,2.38,-71
11:21:02.51,2.24,-71
11:21:02.51,-0.3,-71
11:21:02.544,-2.27,-71
11:21:02.579,-4.64,-70
11:21:02.579,26.35,-70
11:21:02.612,56.35,-70
11:21:02.612,-29.31,-69
11:21:02.646,-30.84,-70
11:21:02.68,-29.89,-70
11:21:02.68,-28.42,-70
11:21:02.713,-27.59,-69
11:21:02.713,-26.21,-69
11:21:02.747,-23.72,-75
11:21:02.795,-20.61,-87
11:21:02.795,-17.16,-104
11:21:02.795,-13.68,-122
11:21:02.83,-9.45,-140
11:21:02.83,-4.62,-156
11:21:02.879,-1.4,-167
11:21:02.879,0.12,-178
11:21:02.929,1.2,-186
11:21:02.929,1.78,-192
11:21:02.929,2.4,-196
11:21:02.963,2.8,-196
11:21:03.012,3.3,-194
11:21:03.012,4.54,-189
11:21:03.012,7.2,-182
11:21:03.046,10.89,-174
11:21:03.079,15.51,-161
11:21:03.079,19.01,-151
11:21:03.113,19.9,-139
11:21:03.113,19.24,-128
11:21:03.146,17.11,-117
11:21:03.146,14.04,-109
11:21:03.195,10.89,-103
11:21:03.195,8.04,-98
11:21:03.243,6.38,-93
11:21:03.243,5.14,-89
11:21:03.29,3.45,-84
11:21:03.29,2.3,-80
11:21:03.29,1.9,-76
11:21:03.337,1.93,-73
11:21:03.337,1.94,-70
11:21:03.384,1.95,-71
11:21:03.384,2.11,-70
11:21:03.43,2.37,-68
11:21:03.43,3.04,-68
11:21:03.43,4.07,-67
11:21:03.477,6.87,-66
11:21:03.477,10.56,-66
11:21:03.524,8.68,-66
11:21:03.524,6.18,-65
11:21:03.571,5.34,-65
11:21:03.571,8.74,-65
11:21:03.571,63.68,-65
11:21:03.617,-25.81,-65
11:21:03.617,-24.17,-66
11:21:03.666,-22.01,-67
11:21:03.666,-20.32,-68
11:21:03.666,-18.71,-70
11:21:03.711,-17.07,-72
11:21:03.711,-15.02,-74
11:21:03.759,-11.49,-84
11:21:03.759,-7.15,-99
11:21:03.793,-3.87,-116
11:21:03.793,-1.73,-134
11:21:03.828,0.94,-151
11:21:03.828,3.75,-165
11:21:03.862,5.47,-175
11:21:03.896,6.39,-185
11:21:03.896,5.96,-192
11:21:03.929,5.44,-196
11:21:03.929,4.14,-199
11:21:03.977,2.48,-199
11:21:03.977,2.03,-196
11:21:04.011,3.06,-191
11:21:04.011,6.22,-182
11:21:04.046,12.03,-170
11:21:04.096,16.88,-159
11:21:04.096,20.39,-145
11:21:04.096,18.84,-134
11:21:04.129,17.38,-122
11:21:04.129,14.49,-112
11:21:04.178,12.36,-105
11:21:04.178,10.73,-99
11:21:04.212,9.42,-94
11:21:04.212,8.31,-88
11:21:04.262,7.61,-83
11:21:04.262,7.17,-80
11:21:04.296,7.37,-75
11:21:04.296,7.5,-73
11:21:04.346,7.59,-71
11:21:04.346,7.66,-69
11:21:04.4,7.7,-67
11:21:04.4,8.25,-65
11:21:04.4,9.14,-64
11:21:04.443,11.27,-64
11:21:04.443,13.22,-63
11:21:04.477,10.54,-60
11:21:04.477,6.98,-61
11:21:04.51,4.88,-61
11:21:04.51,11.12,-61
11:21:04.546,75.41,-61
11:21:04.579,-34.19,-63
11:21:04.579,-27.56,-63
11:21:04.613,-25.38,-63
11:21:04.613,-22.94,-63
11:21:04.662,-20.5,-63
11:21:04.662,-18.32,-64
11:21:04.697,-15.54,-64
11:21:04.697,-12.94,-70
11:21:04.745,-9.79,-86
11:21:04.745,-6.55,-106
11:21:04.745,-3.77,-124
11:21:04.779,0.27,-138
11:21:04.813,2.84,-152
11:21:04.813,4.98,-163
11:21:04.862,5.76,-174
11:21:04.862,5.84,-182
11:21:04.896,4.41,-190
11:21:04.896,2.62,-194
11:21:04.945,1.48,-195
11:21:04.945,0.74,-192
11:21:04.945,0.81,-188
11:21:04.979,1.94,-181
11:21:05.028,3.95,-170
11:21:05.028,6.76,-159
11:21:05.028,9.45,-145
11:21:05.079,10.05,-133
11:21:05.079,9.42,-122
11:21:05.113,8.21,-114
11:21:05.113,6.46,-107
11:21:05.146,4.75,-102
11:21:05.146,3.2,-95
11:21:05.195,2.16,-92
11:21:05.195,1.81,-87
11:21:05.23,1.1,-82
11:21:05.23,0.59,-79
11:21:05.278,0.46,-76
11:21:05.278,0.37,-73
11:21:05.313,0.48,-70
11:21:05.313,0.4,-68
11:21:05.346,0.35,-67
11:21:05.346,0.43,-67
11:21:05.395,1.32,-67
11:21:05.395,3.15,-68
11:21:05.431,4.42,-66
11:21:05.431,0.94,-67
11:21:05.478,-1.35,-66
11:21:05.478,-3.12,-66
11:21:05.528,16.97,-66
11:21:05.528,71.12,-67
11:21:05.528,-37.28,-67
11:21:05.577,-34.26,-66
11:21:05.577,-32.47,-65
11:21:05.628,-31.43,-65
11:21:05.628,-30.93,-66
11:21:05.628,-30.11,-69
11:21:05.678,-28.74,-72
11:21:05.678,-25.94,-82
11:21:05.712,-22.34,-97
11:21:05.712,-18.84,-115
11:21:05.746,-13.26,-132
11:21:05.795,-7.15,-147
11:21:05.795,-1.29,-160
11:21:05.795,3.6,-170
11:21:05.83,6.83,-179
11:21:05.83,8.71,-186
11:21:05.878,10.39,-192
11:21:05.878,12.4,-195
11:21:05.912,15.84,-195
11:21:05.912,18.8,-193
11:21:05.946,23.03,-185
11:21:05.946,27.57,-175
11:21:05.995,31.59,-162
11:21:05.995,33.18,-150
11:21:06.029,32.34,-137
11:21:06.029,29.68,-128
11:21:06.078,25.36,-121
11:21:06.078,19.42,-113
11:21:06.129,12.58,-106
11:21:06.129,6.28,-99
11:21:06.129,2.35,-94
11:21:06.178,1.21,-88
11:21:06.178,0.76,-85
11:21:06.227,0.83,-81
11:21:06.227,0.87,-78
11:21:06.227,0.7,-76
11:21:06.26,0.58,-73
11:21:06.295,0.03,-71
11:21:06.295,-0.68,-69
11:21:06.345,-1.33,-68
11:21:06.345,-1.88,-66
11:21:06.345,-1.7,-66
11:21:06.379,-0.46,-65
11:21:06.427,0.12,-65
11:21:06.427,-2.18,-64
11:21:06.427,-4.32,-65
11:21:06.474,-5.59,-64
11:21:06.474,10,-63
11:21:06.521,68.1,-64
11:21:06.521,-36.77,-63
11:21:06.567,-28.71,-65
11:21:06.567,-24.46,-66
11:21:06.567,-23.71,-67
11:21:06.613,-22.33,-68
11:21:06.613,-20.87,-66
11:21:06.648,-18.96,-68
11:21:06.648,-16.25,-78
11:21:06.696,-12.74,-94
11:21:06.696,-9.89,-111
11:21:06.744,-7.87,-129
11:21:06.744,-4.87,-144
11:21:06.744,-2.08,-157
11:21:06.779,1.6,-168
11:21:06.813,3.52,-179
11:21:06.813,5.64,-187
11:21:06.846,6.89,-193
11:21:06.846,9.26,-195
11:21:06.894,9.17,-195
11:21:06.894,12.11,-190
11:21:06.929,16.04,-182
11:21:06.929,21.18,-170
11:21:06.978,27.41,-158
11:21:06.978,30.35,-147
11:21:07.013,30.64,-135
11:21:07.013,27.52,-126
11:21:07.062,23.04,-118
11:21:07.062,19.83,-109
11:21:07.062,16.41,-101
11:21:07.096,11.85,-94
11:21:07.146,7.67,-89
11:21:07.146,4.06,-85
11:21:07.146,1.76,-80
11:21:07.195,0.64,-76
11:21:07.195,0.76,-72
11:21:07.229,0.83,-68
11:21:07.229,0.86,-68
11:21:07.263,1.06,-66
11:21:07.263,1.88,-65
11:21:07.311,3.28,-63
11:21:07.311,5.99,-63
11:21:07.346,10.46,-63
11:21:07.346,10.7,-63
11:21:07.395,7.62,-62
11:21:07.395,5.07,-62
11:21:07.429,1.53,-61
11:21:07.429,52.92,-62
11:21:07.463,24.17,-61
11:21:07.463,-24.05,-62
11:21:07.514,-18.92,-61
11:21:07.514,-16.08,-60
11:21:07.56,-14.19,-61
11:21:07.56,-12.54,-63
11:21:07.596,-9.48,-63
11:21:07.596,-8.89,-65
11:21:07.63,-7.35,-76
11:21:07.63,-5.64,-92
11:21:07.678,-2.15,-110
11:21:07.678,0.34,-125
11:21:07.712,3.36,-140
11:21:07.712,5.27,-155
11:21:07.745,5.17,-165
11:21:07.745,5.68,-175
11:21:07.779,5.76,-183
11:21:07.827,4.58,-190
11:21:07.827,2.74,-193
11:21:07.827,1.32,-193
11:21:07.862,0.61,-190
11:21:07.862,1.27,-182
11:21:07.91,2.21,-172
11:21:07.91,4.22,-161
11:21:07.946,5.73,-149
11:21:07.946,6.13,-138
11:21:07.979,4.51,-129
11:21:08.012,1.97,-121
11:21:08.012,-1.22,-115
11:21:08.046,-5.56,-107
11:21:08.046,-9.41,-102
11:21:08.095,-12.88,-98
11:21:08.095,-14.27,-94
11:21:08.129,-15.28,-90
11:21:08.129,-14.87,-86
11:21:08.178,-13.84,-82
11:21:08.178,-12.54,-79
11:21:08.212,-10.96,-75
11:21:08.212,-9.44,-71
11:21:08.245,-7.1,-68
11:21:08.245,-3.87,-66
11:21:08.295,-0.7,-65
11:21:08.295,2.95,-64
11:21:08.329,6.05,-65
11:21:08.329,3.89,-66
11:21:08.378,1.58,-65
11:21:08.378,0.59,-65
11:21:08.426,2.68,-64
11:21:08.426,53.97,-64
11:21:08.426,-20.42,-63
11:21:08.46,-23.61,-64
11:21:08.496,-22.73,-64
11:21:08.496,-22.45,-65
11:21:08.543,-21.43,-66
11:21:08.543,-20.74,-66
11:21:08.543,-19.77,-68
11:21:08.576,-17.98,-74
11:21:08.611,-15.84,-86
11:21:08.611,-12.81,-103
11:21:08.646,-10.53,-119
11:21:08.646,-6.88,-134
11:21:08.679,-2.23,-150
11:21:08.679,1.18,-162
11:21:08.712,3.79,-172
11:21:08.762,6.37,-181
11:21:08.762,8.23,-186
11:21:08.762,9.63,-189
11:21:08.812,10.43,-190
11:21:08.812,12.37,-187
11:21:08.846,15.86,-184
11:21:08.846,22.37,-178
11:21:08.899,30.91,-167
11:21:08.899,33.85,-156
11:21:08.943,33.45,-146
11:21:08.943,32.29,-134
11:21:08.943,30.65,-125
11:21:08.978,26.57,-118
11:21:09.011,21.26,-110
11:21:09.011,16.75,-105
11:21:09.045,12.51,-98
11:21:09.045,9.89,-93
11:21:09.079,6.54,-87
11:21:09.112,5.01,-85
11:21:09.112,6.11,-82
11:21:09.146,6.72,-79
11:21:09.146,8.47,-76
11:21:09.179,10.5,-74
11:21:09.179,13.05,-69
11:21:09.213,17.88,-67
11:21:09.262,20.7,-67
11:21:09.262,25.52,-67
11:21:09.262,31.94,-66
11:21:09.295,33.02,-63
11:21:09.345,27.18,-64
11:21:09.345,24.62,-62
11:21:09.345,21.36,-62
11:21:09.379,50.02,-62
11:21:09.412,89.13,-62
11:21:09.412,-13.96,-63
11:21:09.461,-9.41,-63
11:21:09.461,-8.02,-63
11:21:09.496,-7.59,-64
11:21:09.496,-7.09,-65
11:21:09.529,-7.6,-66
11:21:09.529,-6.97,-69
11:21:09.577,-6.28,-78
11:21:09.577,-5.98,-90
11:21:09.612,-4.53,-107
11:21:09.612,-3.09,-123
11:21:09.662,-1.05,-138
11:21:09.662,0.62,-152
11:21:09.662,0.75,-164
11:21:09.695,0.55,-173
11:21:09.729,-0.43,-180
11:21:09.729,-2.24,-186
11:21:09.762,-4.83,-189
11:21:09.762,-5.6,-189
11:21:09.796,-6.03,-186
11:21:09.829,-5.51,-178
11:21:09.829,-3.03,-169
11:21:09.878,0.57,-159
11:21:09.878,6.03,-147
11:21:09.912,9.43,-135
11:21:09.912,9.24,-126
11:21:09.946,7.88,-118
11:21:09.946,5.09,-112
11:21:09.979,0.97,-106
11:21:09.979,-3.41,-101
11:21:10.028,-7.43,-98
11:21:10.028,-8.62,-93
11:21:10.062,-8.76,-90
11:21:10.062,-8.55,-87
11:21:10.111,-8.2,-84
11:21:10.111,-8.36,-81
11:21:10.146,-8.3,-80
11:21:10.146,-8.09,-78
11:21:10.18,-7.77,-77
11:21:10.18,-7.02,-75
11:21:10.228,-5.51,-74
11:21:10.228,-2.6,-72
11:21:10.262,-2.74,-72
11:21:10.262,-4.96,-72
11:21:10.311,-6.61,-72
11:21:10.311,-7.73,-72
11:21:10.345,36.07,-73
11:21:10.345,-13.44,-73
11:21:10.395,-35.23,-75
11:21:10.395,-32.8,-75
11:21:10.445,-30.41,-75
11:21:10.445,-28.96,-75
11:21:10.445,-27.89,-76
11:21:10.479,-26.32,-77
11:21:10.479,-23.64,-82
11:21:10.513,-20.06,-91
11:21:10.559,-16.24,-105
11:21:10.559,-11.68,-119
11:21:10.559,-5.19,-133
11:21:10.594,1.79,-148
11:21:10.629,5.21,-161
11:21:10.629,6.53,-171
11:21:10.678,7.83,-180
11:21:10.678,8.9,-186
11:21:10.678,10.46,-189
11:21:10.729,11.9,-191
11:21:10.729,13.51,-189
11:21:10.762,16.25,-184
11:21:10.762,21.38,-175
11:21:10.811,27.32,-164
11:21:10.811,32.31,-154
11:21:10.845,33.66,-144
11:21:10.845,32.62,-135
11:21:10.879,29.44,-127
11:21:10.879,25.33,-118
11:21:10.912,19.84,-109
11:21:10.945,14.43,-102
11:21:10.945,9.62,-96
11:21:10.995,5.83,-92
11:21:10.995,3.57,-89
11:21:11.029,2.11,-84
11:21:11.029,0.64,-81
11:21:11.062,-0.58,-78
11:21:11.062,-2.28,-77
11:21:11.111,-3.82,-75
11:21:11.111,-4.53,-74
11:21:11.145,-5.51,-73
11:21:11.145,-6.47,-72
11:21:11.179,-6.89,-70
11:21:11.179,-6.2,-71
11:21:11.227,-5.45,-71
11:21:11.227,-7.47,-71
11:21:11.263,-10.07,-71
11:21:11.263,-11.13,-71
11:21:11.311,-5.04,-71
11:21:11.311,59.44,-72
11:21:11.345,-40.57,-71
11:21:11.345,-36.38,-71
11:21:11.378,-33.31,-71
11:21:11.378,-30.36,-72
11:21:11.427,-28.47,-74
11:21:11.427,-26.76,-75
11:21:11.462,-24.35,-77
11:21:11.462,-21.22,-84
11:21:11.495,-17.06,-96
11:21:11.529,-12.97,-112
11:21:11.529,-7.43,-127
11:21:11.576,-1.17,-143
11:21:11.576,3.17,-156
11:21:11.576,6.52,-167
11:21:11.611,9.9,-176
11:21:11.659,13.48,-183
11:21:11.659,15.93,-188
11:21:11.659,17.59,-192
11:21:11.694,18.83,-192
11:21:11.745,18.89,-190
11:21:11.745,19.67,-184
11:21:11.745,21.23,-175
11:21:11.779,22.6,-162
11:21:11.779,23.91,-151
11:21:11.818,23.34,-140
11:21:11.818,21.93,-130
11:21:11.862,19.65,-123
11:21:11.862,14.32,-115
11:21:11.911,9.04,-107
11:21:11.911,4.04,-100
11:21:11.946,0.52,-95
11:21:11.946,-1.1,-91
11:21:11.979,-2.59,-86
11:21:11.979,-1.34,-83
11:21:12.029,-1.23,-80
11:21:12.029,-0.18,-75
11:21:12.078,1.7,-73
11:21:12.078,3.97,-71
11:21:12.112,6.07,-72
11:21:12.112,7.48,-72
11:21:12.146,8.99,-72
11:21:12.146,11.6,-70
11:21:12.194,14.71,-71
11:21:12.194,10.78,-69
11:21:12.246,6.88,-68
11:21:12.246,4.66,-69
11:21:12.246,7.22,-68
11:21:12.294,64.74,-69
11:21:12.294,-26.21,-69
11:21:12.329,-27.84,-69
11:21:12.329,-24.82,-67
11:21:12.378,-19.5,-67
11:21:12.378,-17.27,-67
11:21:12.378,-14.65,-66
11:21:12.412,-12.77,-67
11:21:12.461,-10.99,-73
11:21:12.461,-9.93,-84
11:21:12.461,-7.11,-102
11:21:12.495,-2.96,-118
11:21:12.529,1.88,-134
11:21:12.529,4.34,-148
11:21:12.577,5.88,-160
11:21:12.577,6.65,-170
11:21:12.577,6.45,-178
11:21:12.609,6.34,-185
11:21:12.643,5.25,-187
11:21:12.643,3.99,-189
11:21:12.679,3.19,-188
11:21:12.679,3.4,-185
11:21:12.728,4.4,-178
11:21:12.728,6.24,-168
11:21:12.762,8.85,-157
11:21:12.762,12.13,-144
11:21:12.795,14.11,-135
11:21:12.795,14.82,-127
11:21:12.845,13.64,-120
11:21:12.845,11.65,-115
11:21:12.879,9.77,-109
11:21:12.879,7.11,-103
11:21:12.928,5.18,-99
11:21:12.928,2.57,-95
11:21:12.962,1.2,-92
11:21:12.962,0.1,-89
11:21:13.009,-0.87,-86
11:21:13.009,-1.48,-84
11:21:13.045,-2.14,-81
11:21:13.045,-2.84,-79
11:21:13.094,-2.64,-78
11:21:13.094,-2.3,-77
11:21:13.094,-1.27,-76
11:21:13.128,0.85,-75
11:21:13.162,-0.02,-75
11:21:13.162,-1.71,-75
11:21:13.21,-2.73,-75
11:21:13.21,-4.56,-73
11:21:13.246,38.47,-73
11:21:13.246,-11.25,-73
11:21:13.293,-34.92,-73
11:21:13.293,-34.98,-73
11:21:13.339,-34.12,-73
11:21:13.339,-33.05,-72
11:21:13.339,-32.1,-73
11:21:13.386,-30.63,-75
11:21:13.386,-28.93,-79
11:21:13.433,-25.73,-88
11:21:13.433,-21.54,-104
11:21:13.48,-16.38,-120
11:21:13.48,-7.85,-137
11:21:13.48,1.24,-152
11:21:13.527,8.86,-163
11:21:13.527,13.55,-174
11:21:13.573,15.82,-183
11:21:13.573,17.6,-186
11:21:13.619,17.75,-189
11:21:13.619,17.54,-190
11:21:13.619,17.41,-190
11:21:13.666,17.53,-186
11:21:13.666,18.82,-181
11:21:13.712,20.71,-172
11:21:13.712,22.87,-161
11:21:13.759,23.93,-149
11:21:13.759,23.03,-139
11:21:13.759,20.74,-129
11:21:13.794,16.76,-122
11:21:13.827,12.19,-117
11:21:13.827,8.36,-111
11:21:13.862,5.89,-104
11:21:13.862,4.69,-99
11:21:13.895,4.1,-94
11:21:13.895,4.07,-90
11:21:13.928,4.06,-86
11:21:13.978,3.86,-82
11:21:13.978,3.37,-80
11:21:13.978,3.13,-78
11:21:14.012,2.94,-77
11:21:14.061,3.11,-73
11:21:14.061,3.24,-73
11:21:14.061,3.77,-72
11:21:14.094,5.42,-71
11:21:14.094,6.05,-71
11:21:14.144,3.44,-71
11:21:14.144,0.97,-69
11:21:14.179,-0.86,-69
11:21:14.179,14.69,-68
11:21:14.228,75.27,-69
11:21:14.228,-35.5,-70
11:21:14.276,-29.5,-71
11:21:14.276,-26.18,-72
11:21:14.276,-23.68,-72
11:21:14.327,-23.39,-74
11:21:14.327,-22.34,-73
11:21:14.359,-21.06,-76
11:21:14.359,-19.56,-82
11:21:14.395,-17.23,-96
11:21:14.395,-14.33,-114
11:21:14.429,-11.86,-131
11:21:14.478,-9.19,-144
11:21:14.478,-7.13,-158
11:21:14.478,-4.83,-170
11:21:14.512,-3.38,-179
11:21:14.512,-1.54,-186
11:21:14.546,0.38,-191
11:21:14.592,1.99,-195
11:21:14.592,3.01,-195
11:21:14.626,3.92,-192
11:21:14.626,6.5,-184
11:21:14.662,10.54,-176
11:21:14.662,16.77,-164
11:21:14.695,19.96,-151
11:21:14.695,22.25,-138
11:21:14.729,22.15,-131
11:21:14.79,20.34,-122
11:21:14.79,18.3,-116
11:21:14.79,16.47,-109
11:21:14.827,14.58,-101
11:21:14.827,12.99,-95
11:21:14.862,12.32,-88
11:21:14.862,11.65,-84
11:21:14.91,12.27,-81
11:21:14.91,12.2,-79
11:21:14.945,12.16,-76
11:21:14.945,12.64,-74
11:21:14.994,13.06,-73
11:21:14.994,13.23,-70
11:21:14.994,13.36,-71
11:21:15.029,14.21,-70
11:21:15.078,15.89,-69
11:21:15.078,16.45,-67
11:21:15.078,13.92,-68
11:21:15.112,10.96,-67
11:21:15.161,7.12,-66
11:21:15.161,27.5,-65
11:21:15.161,81.26,-66
11:21:15.195,-36.63,-65
11:21:15.195,-28.63,-66
11:21:15.228,-23.8,-66
11:21:15.278,-21.27,-64
11:21:15.278,-18.52,-66
11:21:15.278,-16.22,-66
11:21:15.328,-13.78,-68
11:21:15.328,-11.14,-77
11:21:15.378,-8.32,-93
11:21:15.378,-5.37,-113
11:21:15.378,-2.75,-131
11:21:15.412,-0.03,-148
11:21:15.446,1.99,-161
11:21:15.446,3.13,-173
11:21:15.494,3.41,-184
11:21:15.494,3.31,-190
11:21:15.494,3.02,-195
11:21:15.529,2.82,-197
11:21:15.578,2.5,-197
11:21:15.578,2.41,-192
11:21:15.578,2.97,-187
11:21:15.626,4.01,-179
11:21:15.626,5.75,-168
11:21:15.674,8.07,-158
11:21:15.674,9.74,-146
11:21:15.674,10.16,-137
11:21:15.71,9.29,-128
11:21:15.743,7.62,-121
11:21:15.743,5.02,-113
11:21:15.777,2.49,-107
11:21:15.777,0.03,-102
11:21:15.812,-1.91,-95
11:21:15.812,-3.04,-91
11:21:15.861,-2.06,-87
11:21:15.861,-0.85,-84
11:21:15.895,-1.78,-81
11:21:15.895,-3.52,-78
11:21:15.945,-3.67,-76
11:21:15.945,-3.75,-73
11:21:15.979,-3.39,-72
11:21:15.979,-3.32,-70
11:21:16.028,-2.93,-69
11:21:16.028,-2.09,-69
11:21:16.062,-2.28,-69
11:21:16.062,-4.94,-69
11:21:16.11,-7.44,-67
11:21:16.11,-9.79,-66
11:21:16.11,28.5,-65
11:21:16.145,30.52,-66
11:21:16.194,-8.42,-65
11:21:16.194,-24.37,-66
11:21:16.194,-24.11,-66
11:21:16.228,-22.79,-66
11:21:16.263,-21.08,-66
11:21:16.263,-18.98,-69
11:21:16.312,-15.42,-75
11:21:16.312,-10.25,-87
11:21:16.312,-4.33,-102
11:21:16.361,-0.02,-122
11:21:16.361,3.89,-140
11:21:16.395,10.02,-156
11:21:16.395,14.16,-170
11:21:16.43,15.53,-180
11:21:16.43,15.71,-187
11:21:16.479,16.37,-194
11:21:16.479,16.53,-199
11:21:16.512,16.42,-201
11:21:16.512,16.52,-199
11:21:16.546,16.77,-196
11:21:16.594,17.91,-189
11:21:16.594,19.65,-179
11:21:16.594,21.71,-164
11:21:16.644,23.11,-151
11:21:16.644,22.76,-142
11:21:16.678,20.73,-131
11:21:16.678,17.33,-122
11:21:16.711,13.23,-115
11:21:16.711,8.67,-109
11:21:16.76,4.55,-102
11:21:16.76,1.95,-96
11:21:16.795,-0.14,-91
11:21:16.795,-0.86,-87
11:21:16.829,-1.22,-83
11:21:16.878,-1.94,-79
11:21:16.878,-2.7,-76
11:21:16.878,-3.02,-74
11:21:16.912,-2.58,-74
11:21:16.912,-1.84,-70
11:21:16.962,-1,-70
11:21:16.962,0.86,-68
11:21:16.997,5.34,-68
11:21:16.997,6.04,-68
11:21:17.043,2.71,-68
11:21:17.043,0.83,-68
11:21:17.092,-0.59,-69
11:21:17.092,42.61,-69
11:21:17.092,2.59,-68
11:21:17.126,-27.72,-68
11:21:17.161,-25.56,-69
11:21:17.161,-23.77,-69
11:21:17.21,-21.84,-68
11:21:17.21,-20.77,-69
11:21:17.245,-19.87,-71
11:21:17.245,-18.45,-78
11:21:17.278,-15.88,-89
11:21:17.278,-13.05,-106
11:21:17.327,-9.12,-124
11:21:17.327,-3.36,-141
11:21:17.378,2.87,-155
11:21:17.378,6.12,-168
11:21:17.378,7.45,-177
11:21:17.428,8.4,-185
11:21:17.428,8.91,-191
11:21:17.461,9.2,-193
11:21:17.461,9.16,-193
11:21:17.495,9.13,-190
11:21:17.495,9.59,-187
11:21:17.543,10.87,-182
11:21:17.543,13.21,-172
11:21:17.593,16.32,-160
11:21:17.593,18.12,-148
11:21:17.593,17.72,-136
11:21:17.642,16.08,-125
11:21:17.642,12.95,-116
11:21:17.678,9.12,-109
11:21:17.678,5.17,-101
11:21:17.711,2.37,-95
11:21:17.711,0.94,-91
11:21:17.761,0.6,-86
11:21:17.761,0.43,-83
11:21:17.795,0.33,-79
11:21:17.795,0.46,-76
11:21:17.829,0.9,-74
11:21:17.878,1.45,-71
11:21:17.878,1.93,-69
11:21:17.878,2.52,-69
11:21:17.927,3.41,-69
11:21:17.927,5.34,-67
11:21:17.961,9.95,-67
11:21:17.961,11.26,-67
11:21:17.996,9.01,-66
11:21:17.996,7.53,-66
11:21:18.042,4.96,-66
11:21:18.042,49.11,-67
11:21:18.078,21.72,-66
11:21:18.078,-24.14,-67
11:21:18.111,-29.08,-65
11:21:18.111,-26.75,-65
11:21:18.145,-25.52,-66
11:21:18.178,-25.69,-66
11:21:18.178,-25.23,-66
11:21:18.212,-23.71,-72
11:21:18.212,-20.39,-84
11:21:18.245,-14.53,-102
11:21:18.293,-8.37,-122
11:21:18.293,-0.82,-139
11:21:18.293,4.13,-155
11:21:18.328,8.18,-167
11:21:18.363,9.53,-176
11:21:18.363,9.33,-182
11:21:18.395,9.52,-188
11:21:18.395,9.63,-192
11:21:18.445,9.11,-192
11:21:18.445,8.69,-192
11:21:18.492,9.53,-189
11:21:18.492,11.15,-183
11:21:18.492,14.69,-172
11:21:18.528,18.29,-160
11:21:18.528,19.87,-148
11:21:18.562,19.18,-135
11:21:18.609,18.21,-124
11:21:18.609,16.72,-114
11:21:18.609,14.37,-108
11:21:18.644,11.44,-101
11:21:18.678,8.92,-95
11:21:18.678,7,-92
11:21:18.712,5.52,-87
11:21:18.712,4.66,-83
11:21:18.761,3.57,-78
11:21:18.761,2.82,-74
11:21:18.795,1.8,-71
11:21:18.795,2.4,-71
11:21:18.844,3.04,-70
11:21:18.844,3.51,-69
11:21:18.879,5.17,-67
11:21:18.879,8.47,-67
11:21:18.929,8.29,-67
11:21:18.929,5.65,-67
11:21:18.929,3.3,-67
11:21:18.977,-0.15,-66
11:21:18.977,37.45,-67
11:21:19.011,45.16,-68
11:21:19.011,-13.08,-68
11:21:19.045,-25.13,-68
11:21:19.094,-25.72,-70
11:21:19.094,-26.26,-69
11:21:19.094,-26.18,-70
11:21:19.128,-25.63,-71
11:21:19.128,-24.56,-75
11:21:19.177,-22.89,-86
11:21:19.177,-20.85,-101
11:21:19.211,-18.57,-119
11:21:19.211,-14.77,-134
11:21:19.261,-8.49,-149
11:21:19.261,-2.6,-162
11:21:19.295,1.39,-174
11:21:19.295,4.56,-184
11:21:19.328,6.97,-192
11:21:19.328,8.2,-195
11:21:19.361,8.83,-198
11:21:19.396,9.17,-197
11:21:19.396,10.59,-193
11:21:19.444,13.5,-183
11:21:19.444,16.95,-174
11:21:19.478,20.29,-162
11:21:19.478,22.3,-151
11:21:19.527,22.57,-141
11:21:19.527,20.94,-133
11:21:19.527,17.83,-124
11:21:19.562,13.29,-115
11:21:19.607,8.59,-106
11:21:19.607,4.46,-100
11:21:19.607,2.36,-94
11:21:19.66,0.59,-89
11:21:19.66,-0.36,-84
11:21:19.693,-0.57,-81
11:21:19.693,-0.93,-78
11:21:19.743,-0.94,-75
11:21:19.743,-0.95,-73
11:21:19.792,-0.96,-71
11:21:19.792,-0.97,-69
11:21:19.792,-0.85,-68
11:21:19.825,-0.17,-67
11:21:19.825,1.25,-67
11:21:19.859,4.64,-67
11:21:19.892,5.49,-68
11:21:19.892,3.49,-68
11:21:19.927,2.98,-68
11:21:19.961,1.87,-68
11:21:19.961,36.48,-68
11:21:20.011,10.85,-68
11:21:20.011,-22.15,-68
11:21:20.011,-24.44,-68
11:21:20.044,-23.2,-69
11:21:20.078,-22.35,-69
11:21:20.078,-22.24,-69
11:21:20.127,-21.68,-70
11:21:20.127,-20.59,-77
11:21:20.161,-18.39,-91
11:21:20.161,-15.05,-109
11:21:20.211,-11.07,-126
11:21:20.211,-6.17,-142
11:21:20.211,0.19,-156
11:21:20.245,6.42,-167
11:21:20.294,11.01,-178
11:21:20.294,13,-186
11:21:20.294,13.41,-192
11:21:20.328,12.66,-197
11:21:20.328,11.64,-199
11:21:20.377,10.91,-198
11:21:20.377,11.19,-193
11:21:20.411,12.26,-185
11:21:20.411,13.44,-173
11:21:20.445,15.19,-160
11:21:20.494,16.06,-148
11:21:20.494,14.91,-137
11:21:20.494,11.81,-128
11:21:20.528,8.9,-119
11:21:20.528,4.95,-112
11:21:20.561,2.32,-104
11:21:20.595,0.53,-98
11:21:20.595,-0.04,-93
11:21:20.642,0.57,-88
11:21:20.642,0.42,-82
11:21:20.677,0.33,-78
11:21:20.677,0.27,-76
11:21:20.711,0.22,-73
11:21:20.711,0.33,-72
11:21:20.745,0.69,-69
11:21:20.794,1.16,-68
11:21:20.794,2.26,-66
11:21:20.794,4.55,-66
11:21:20.828,8.36,-63
11:21:20.828,10.66,-62
11:21:20.861,5.73,-63
11:21:20.911,3.52,-62
11:21:20.911,2.49,-61
11:21:20.911,22.28,-62
11:21:20.96,78.67,-63
11:21:20.96,-29.87,-62
11:21:21.01,-18.93,-64
11:21:21.01,-14.3,-64
11:21:21.01,-12.02,-64
11:21:21.045,-10.28,-65
11:21:21.093,-9.05,-65
11:21:21.093,-7.7,-69
11:21:21.093,-5.56,-78
11:21:21.128,-2.24,-96
11:21:21.128,0.69,-114
11:21:21.161,2.46,-132
11:21:21.209,4.51,-146
11:21:21.209,6.52,-160
11:21:21.209,7.41,-170
11:21:21.244,7.6,-179
11:21:21.278,7.45,-186
11:21:21.278,6.52,-191
11:21:21.327,5.48,-192
11:21:21.327,4.35,-192
11:21:21.327,3.99,-189
11:21:21.362,4.46,-185
11:21:21.41,5.45,-177
11:21:21.41,7.51,-164
11:21:21.41,10.44,-153
11:21:21.461,12.53,-141
11:21:21.461,11.6,-132
11:21:21.511,9.19,-122
11:21:21.511,6.27,-113
11:21:21.511,3.4,-106
11:21:21.544,0,-100
11:21:21.578,-2.56,-94
11:21:21.578,-3.55,-89
11:21:21.625,-4.04,-84
11:21:21.625,-4.58,-81
11:21:21.625,-4.69,-78
11:21:21.675,-4.13,-75
11:21:21.675,-3.48,-73
11:21:21.71,-3.17,-72
11:21:21.71,-2.74,-71
11:21:21.744,-1.82,-71
11:21:21.744,-0.09,-70
11:21:21.778,2.49,-69
11:21:21.811,6.53,-70
11:21:21.811,5.44,-69
11:21:21.845,3.54,-69
11:21:21.845,2.29,-68
11:21:21.894,2.52,-68
11:21:21.894,39.31,-68
11:21:21.942,-15.96,-67
11:21:21.942,-27.22,-67
11:21:21.99,-24.41,-68
11:21:21.99,-22.27,-68
11:21:21.99,-21.74,-68
11:21:22.025,-20.87,-69
11:21:22.025,-19.76,-73
11:21:22.06,-17.55,-81
11:21:22.095,-14.67,-95
11:21:22.095,-11.34,-115
11:21:22.142,-8.69,-132
11:21:22.142,-4.76,-148
11:21:22.178,-0.43,-161
11:21:22.178,3.04,-171
11:21:22.211,5.27,-180
11:21:22.211,6.37,-187
11:21:22.244,7.26,-192
11:21:22.244,8.38,-196
11:21:22.277,9.43,-197
11:21:22.311,10.16,-195
11:21:22.311,11.96,-191
11:21:22.36,14.74,-184
11:21:22.36,17.79,-172
11:21:22.394,20.69,-160
11:21:22.394,20.82,-147
11:21:22.444,19.09,-136
11:21:22.444,15.87,-126
11:21:22.444,11.62,-116
11:21:22.495,6.85,-110
11:21:22.495,3.07,-103
11:21:22.542,0.27,-97
11:21:22.542,-1.55,-92
11:21:22.592,-2.85,-88
11:21:22.592,-3.58,-85
11:21:22.592,-3.41,-82
11:21:22.625,-3.31,-78
11:21:22.625,-3.25,-74
11:21:22.659,-3.04,-72
11:21:22.694,-2.72,-71
11:21:22.694,-2.12,-69
11:21:22.744,-0.65,-69
11:21:22.744,1.49,-69
11:21:22.744,5.43,-67
11:21:22.777,7.33,-67
11:21:22.811,4.57,-65
11:21:22.811,2.76,-66
11:21:22.843,2.12,-66
11:21:22.843,9.9,-65
11:21:22.878,70.65,-65
11:21:22.911,-33.24,-66
11:21:22.911,-27.51,-67
11:21:22.959,-23.01,-68
11:21:22.959,-20.45,-68
11:21:22.995,-19.82,-70
11:21:22.995,-18.55,-72
11:21:23.029,-17.43,-73
11:21:23.029,-15.51,-82
11:21:23.075,-12.71,-98
11:21:23.075,-10.17,-115
11:21:23.111,-7,-133
11:21:23.111,-3.7,-146
11:21:23.145,0.87,-159
11:21:23.145,3.74,-167
11:21:23.194,5.58,-176
11:21:23.194,5.74,-184
11:21:23.228,5.53,-190
11:21:23.228,5.4,-193
11:21:23.263,5.72,-192
11:21:23.263,6.33,-190
11:21:23.308,8.25,-183
11:21:23.308,11.55,-172
11:21:23.354,16.27,-161
11:21:23.354,20.28,-149
11:21:23.402,21.54,-137
11:21:23.402,20.97,-126
11:21:23.402,20.08,-119
11:21:23.449,16.98,-114
11:21:23.449,14.02,-107
11:21:23.496,12.01,-101
11:21:23.496,10.13,-95
11:21:23.543,9,-91
11:21:23.543,7.72,-86
11:21:23.543,7.49,-80
11:21:23.589,7.12,-77
11:21:23.589,7.32,-75
11:21:23.636,7.26,-73
11:21:23.636,7.21,-72
11:21:23.684,7.33,-70
11:21:23.684,7.56,-69
11:21:23.684,8.03,-67
11:21:23.73,9.27,-67
11:21:23.73,11.18,-67
11:21:23.776,9.1,-66
11:21:23.776,6.4,-65
11:21:23.825,5.12,-66
11:21:23.825,4.41,-67
11:21:23.825,46.17,-67
11:21:23.86,-11.98,-67
11:21:23.86,-27.64,-66
11:21:23.894,-24.35,-65
11:21:23.928,-20.61,-66
11:21:23.928,-19.38,-64
11:21:23.977,-17.38,-64
11:21:23.977,-16.52,-64
11:21:24.011,-14.8,-70
11:21:24.011,-11.62,-84
11:21:24.06,-8.24,-103
11:21:24.06,-3.5,-124
11:21:24.06,1.93,-142
11:21:24.11,4.49,-156
11:21:24.11,5.57,-168
11:21:24.144,5.72,-176
11:21:24.144,5.26,-184
11:21:24.194,4,-190
11:21:24.194,2.67,-193
11:21:24.243,1.62,-194
11:21:24.243,1.44,-190
11:21:24.243,2.26,-186
11:21:24.277,3.39,-179
11:21:24.327,5.88,-168
11:21:24.327,9.63,-158
11:21:24.327,12.69,-145
11:21:24.361,14.5,-135
11:21:24.361,13.94,-126
11:21:24.41,11.85,-119
11:21:24.41,9.53,-112
11:21:24.444,6.44,-107
11:21:24.444,3.85,-102
11:21:24.493,1.92,-97
11:21:24.493,1.21,-93
11:21:24.528,0.84,-90
11:21:24.528,0.88,-85
11:21:24.561,0.9,-82
11:21:24.561,0.92,-79
11:21:24.594,0.93,-76
11:21:24.628,0.94,-74
11:21:24.628,1.06,-75
11:21:24.675,1.4,-74
11:21:24.675,2.37,-72
11:21:24.71,4.33,-71
11:21:24.71,5.61,-70
11:21:24.744,2.85,-71
11:21:24.744,0.74,-70
11:21:24.777,-0.98,-69
11:21:24.81,17.51,-69
11:21:24.81,72.14,-70
11:21:24.845,-34.64,-70
11:21:24.845,-28.53,-70
11:21:24.894,-27.6,-70
11:21:24.894,-26.95,-71
11:21:24.928,-26.96,-71
11:21:24.928,-26.73,-70
11:21:24.976,-26.15,-73
11:21:24.976,-25.06,-82
11:21:25.027,-23.34,-98
11:21:25.027,-20.6,-116
11:21:25.027,-16.4,-133
11:21:25.062,-10.08,-149
11:21:25.062,-4.87,-165
11:21:25.11,-0.86,-177
11:21:25.11,2.89,-186
11:21:25.144,5.24,-192
11:21:25.144,6.37,-196
11:21:25.193,7.62,-197
11:21:25.193,9.01,-197
11:21:25.242,12.15,-193
11:21:25.242,17.5,-185
11:21:25.242,24.93,-177
11:21:25.277,32.12,-167
11:21:25.325,37.08,-156
11:21:25.325,37.04,-145
11:21:25.325,36.34,-134
11:21:25.361,33.62,-124
11:21:25.361,30.52,-116
11:21:25.408,27.5,-109
11:21:25.408,25.64,-105
11:21:25.443,23.9,-100
11:21:25.443,23.23,-94
11:21:25.492,24.05,-91
11:21:25.492,24.59,-89
11:21:25.544,23.7,-86
11:21:25.544,22.02,-82
11:21:25.544,18.17,-79
11:21:25.594,12.03,-77
11:21:25.594,5.96,-75
11:21:25.627,1.24,-73
11:21:25.627,-2.88,-73
11:21:25.677,-5.8,-71
11:21:25.677,-7.19,-70
11:21:25.725,-13.68,-71
11:21:25.725,-23.41,-69
11:21:25.725,-28.53,-68
11:21:25.76,-28.25,-68
11:21:25.76,21.01,-66
11:21:25.795,-55.51,-68
11:21:25.843,-61.32,-68
11:21:25.843,-56.96,-70
11:21:25.843,-53.93,-69
11:21:25.877,-50.38,-70
11:21:25.911,-46.65,-72
11:21:25.911,-42.31,-73
11:21:25.961,-39.35,-78
11:21:25.961,-36.6,-92
11:21:25.961,-33.45,-109
11:21:25.994,-27.77,-125
11:21:26.03,-17.94,-138
11:21:26.03,-7.23,-152
11:21:26.076,5.42,-162
11:21:26.076,12.34,-172
11:21:26.111,16.73,-180
11:21:26.111,20.89,-185
11:21:26.16,24.3,-189
11:21:26.16,27.32,-189
11:21:26.16,28.47,-186
11:21:26.195,31.48,-180
11:21:26.243,34.84,-172
11:21:26.243,41.25,-161
11:21:26.243,46.79,-152
11:21:26.277,46.9,-141
11:21:26.277,44.52,-131
11:21:26.327,40.64,-120
11:21:26.327,36.06,-112
11:21:26.361,29.91,-104
11:21:26.361,25.28,-98
11:21:26.395,21.67,-93
11:21:26.443,19.05,-89
11:21:26.443,16.51,-85
11:21:26.443,15.1,-81
11:21:26.477,12.25,-79
11:21:26.477,10.2,-76
11:21:26.511,9.01,-74
11:21:26.545,8.02,-71
11:21:26.545,8.01,-69
11:21:26.593,7.32,-68
11:21:26.593,7.24,-66
11:21:26.627,7.39,-65
11:21:26.627,6.81,-63
11:21:26.661,3.67,-62
11:21:26.661,-0.89,-61
11:21:26.708,-4.47,-61
11:21:26.708,12.17,-61
11:21:26.744,75.81,-62
11:21:26.744,-45.74,-61
11:21:26.777,-33.91,-62
11:21:26.777,-31.93,-63
11:21:26.811,-28.23,-63
11:21:26.845,-21.29,-62
11:21:26.845,-12.58,-61
11:21:26.893,-6.4,-62
11:21:26.893,-2.9,-70
11:21:26.927,1.77,-86
11:21:26.927,5.28,-104
11:21:26.977,7.42,-123
11:21:26.977,9.26,-137
11:21:26.977,10.64,-151
11:21:27.009,11.1,-162
11:21:27.044,10.79,-172
11:21:27.044,10.37,-179
11:21:27.078,9.86,-185
11:21:27.111,9.25,-190
11:21:27.111,8.77,-190
11:21:27.16,8.4,-188
11:21:27.16,8.91,-183
11:21:27.16,10.52,-174
11:21:27.194,12.23,-162
11:21:27.243,13.98,-149
11:21:27.243,14.96,-138
11:21:27.243,13.78,-130
11:21:27.277,11.51,-123
11:21:27.277,7.57,-116
11:21:27.311,3.51,-110
11:21:27.344,-0.35,-102
11:21:27.344,-3.38,-95
11:21:27.378,-4.51,-91
11:21:27.378,-5.39,-86
11:21:27.427,-6.49,-82
11:21:27.427,-7.23,-79
11:21:27.461,-7.44,-77
11:21:27.461,-7.56,-75
11:21:27.509,-7.65,-71
11:21:27.509,-7.54,-69
11:21:27.544,-7.16,-68
11:21:27.544,-6.81,-67
11:21:27.594,-6.36,-67
11:21:27.594,-4.92,-67
11:21:27.643,-5.9,-67
11:21:27.643,-8.2,-66
11:21:27.643,-9.76,-67
11:21:27.678,-11.46,-66
11:21:27.678,32.75,-66
11:21:27.725,-11.66,-65
11:21:27.725,-36.32,-65
11:21:27.759,-34.54,-65
11:21:27.759,-32.33,-65
11:21:27.794,-29.71,-67
11:21:27.843,-27.41,-69
11:21:27.843,-24.53,-71
11:21:27.843,-20.29,-78
11:21:27.878,-15.63,-91
11:21:27.878,-11.5,-105
11:21:27.911,-7.49,-122
11:21:27.96,-2.14,-138
11:21:27.96,4.93,-151
11:21:27.96,12.08,-162
11:21:27.994,19.29,-171
11:21:28.048,25.3,-179
11:21:28.048,27.83,-184
11:21:28.048,28.79,-189
11:21:28.088,28.16,-192
11:21:28.088,27.53,-191
11:21:28.125,27.92,-184
11:21:28.125,29.09,-176
11:21:28.175,29.84,-165
11:21:28.175,30.38,-154
11:21:28.209,29.83,-143
11:21:28.209,27.4,-133
11:21:28.244,22.18,-124
11:21:28.244,15.25,-116
11:21:28.277,7.63,-108
11:21:28.277,1.63,-101
11:21:28.327,0.21,-94
11:21:28.327,0.13,-89
11:21:28.376,0.09,-84
11:21:28.376,-0.62,-81
11:21:28.376,-1.16,-77
11:21:28.411,-1.57,-75
11:21:28.446,-2.28,-72
11:21:28.446,-2.66,-71
11:21:28.493,-2.73,-70
11:21:28.493,-2.43,-67
11:21:28.528,-1.34,-65
11:21:28.528,2,-63
11:21:28.577,5.56,-65
11:21:28.577,4.08,-64
11:21:28.577,3.33,-64
11:21:28.611,2.93,-64
11:21:28.644,9.59,-64
11:21:28.644,70.73,-65
11:21:28.677,-31.5,-64
11:21:28.677,-21.87,-64
11:21:28.712,-20,-64
11:21:28.758,-18.63,-64
11:21:28.758,-17.28,-63
11:21:28.758,-15.84,-64
11:21:28.792,-14.59,-66
11:21:28.827,-13.48,-74
11:21:28.827,-11.26,-89
11:21:28.876,-9.12,-106
11:21:28.876,-5.15,-124
11:21:28.876,1.79,-140
11:21:28.91,9.31,-154
11:21:28.944,12.51,-165
11:21:28.944,14.61,-173
11:21:28.993,14.77,-180
11:21:28.993,14.54,-182
11:21:29.027,14.17,-185
11:21:29.027,13.7,-186
11:21:29.061,13.55,-186
11:21:29.061,14.37,-182
11:21:29.108,15.96,-174
11:21:29.108,17.05,-162
11:21:29.142,18.14,-150
11:21:29.142,18.65,-139
11:21:29.175,18,-130
11:21:29.175,16.09,-122
11:21:29.21,12.76,-115
11:21:29.244,8.2,-109
11:21:29.244,3.08,-103
11:21:29.293,-0.9,-98
11:21:29.293,-4.24,-93
11:21:29.327,-6.81,-88
11:21:29.327,-8.54,-85
11:21:29.376,-9.82,-82
11:21:29.376,-10.21,-80
11:21:29.376,-10.15,-77
11:21:29.411,-10.77,-74
11:21:29.444,-11.69,-72
11:21:29.444,-12.24,-69
11:21:29.494,-12.86,-69
11:21:29.494,-12.44,-69
11:21:29.494,-10.05,-69
11:21:29.542,-9.41,-68
11:21:29.542,-11.48,-66
11:21:29.576,-12.29,-66
11:21:29.576,-13.65,-66
11:21:29.611,21.39,-67
11:21:29.644,13.95,-67
11:21:29.644,-20.53,-67
11:21:29.694,-27.32,-67
11:21:29.694,-26.53,-68
11:21:29.694,-25.11,-68
11:21:29.741,-23.66,-69
11:21:29.741,-21.78,-69
11:21:29.775,-18.77,-71
11:21:29.775,-14.16,-79
11:21:29.808,-9.95,-94
11:21:29.844,-5.29,-109
11:21:29.844,0.17,-126
11:21:29.877,7.18,-140
11:21:29.877,12.55,-154
11:21:29.911,15.39,-166
11:21:29.96,17,-178
11:21:29.96,18.51,-186
11:21:29.96,19.72,-191
11:21:29.994,20.12,-191
11:21:29.994,20.62,-191
11:21:30.044,21.9,-189
11:21:30.044,24.35,-183
11:21:30.077,27.96,-176
11:21:30.077,30.86,-164
11:21:30.11,31.74,-153
11:21:30.144,31.16,-143
11:21:30.144,29.71,-132
11:21:30.193,26.8,-124
11:21:30.193,23.17,-117
11:21:30.193,18.44,-113
11:21:30.227,12.56,-108
11:21:30.277,7.64,-102
11:21:30.277,4.31,-97
11:21:30.277,2.35,-92
11:21:30.31,1.42,-89
11:21:30.344,0.3,-86
11:21:30.344,-0.1,-83
11:21:30.377,-1.1,-80
11:21:30.377,-2.39,-77
11:21:30.427,-3.12,-76
11:21:30.427,-3.61,-73
11:21:30.462,-2.28,-71
11:21:30.462,1.04,-68
11:21:30.51,2.53,-67
11:21:30.51,1.66,-66
11:21:30.544,2.97,-65
11:21:30.544,3.28,-65
11:21:30.577,36.93,-65
11:21:30.577,15.05,-65
11:21:30.61,-14.91,-64
11:21:30.66,-11.04,-64
11:21:30.66,-9.39,-62
11:21:30.66,-6.75,-60
11:21:30.694,-3.62,-59
11:21:30.694,0.82,-57
11:21:30.728,4.14,-59
11:21:30.774,8.95,-69
11:21:30.774,11.38,-86
11:21:30.774,13.32,-103
11:21:30.82,15.48,-119
11:21:30.82,17.54,-132
11:21:30.858,17.71,-143
11:21:30.858,17.51,-153
11:21:30.893,17.17,-161
11:21:30.893,16.09,-169
11:21:30.927,13.9,-175
11:21:30.977,11.73,-178
11:21:30.977,8.35,-175
11:21:30.977,8.21,-171
11:21:31.01,9.04,-167
11:21:31.045,8.48,-160
11:21:31.045,9.6,-150
11:21:31.093,10.24,-140
11:21:31.093,9.44,-132
11:21:31.093,8.59,-123
11:21:31.127,6.45,-116
11:21:31.176,3.46,-109
11:21:31.176,-0.14,-103
11:21:31.176,-4.34,-99
11:21:31.21,-7.85,-94
11:21:31.244,-9.71,-90
11:21:31.244,-10.98,-87
11:21:31.277,-11.33,-84
11:21:31.277,-11.24,-81
11:21:31.334,-10.97,-80
11:21:31.334,-10.58,-78
11:21:31.375,-10.08,-73
11:21:31.375,-9.48,-72
11:21:31.375,-8.37,-73
11:21:31.41,-5.9,-73
11:21:31.444,-3.97,-73
11:21:31.444,-7.06,-72
11:21:31.493,-8.61,-71
11:21:31.493,-9.81,-71
11:21:31.493,3.01,-70
11:21:31.527,71.99,-70
11:21:31.576,-44.5,-71
11:21:31.576,-34.78,-70
11:21:31.576,-30.99,-70
11:21:31.61,-28.46,-71
11:21:31.61,-26.53,-73
11:21:31.645,-24.79,-74
11:21:31.693,-22.35,-78
11:21:31.693,-18.46,-85
11:21:31.693,-13.93,-98
11:21:31.728,-9.73,-111
11:21:31.774,-5.62,-125
11:21:31.774,-0.64,-139
11:21:31.774,3.6,-150
11:21:31.808,6.18,-159
11:21:31.844,7.8,-166
11:21:31.844,9.35,-173
11:21:31.893,10.26,-177
11:21:31.893,10.49,-180
11:21:31.893,10.86,-181
11:21:31.927,11.33,-179
11:21:31.976,12.74,-176
11:21:31.976,14.89,-169
11:21:31.976,17.82,-160
11:21:32.01,19.8,-149
11:21:32.044,20.24,-138
11:21:32.044,19.59,-129
11:21:32.077,17.59,-124
11:21:32.077,14.56,-118
11:21:32.11,10.52,-112
11:21:32.11,5.89,-106
11:21:32.161,2.62,-100
11:21:32.161,0.56,-95
11:21:32.209,-0.45,-91
11:21:32.209,-0.63,-89
11:21:32.244,-0.73,-84
11:21:32.244,-0.57,-82
11:21:32.277,-0.47,-80
11:21:32.277,-0.39,-78
11:21:32.311,-0.04,-76
11:21:32.311,0.27,-76
11:21:32.344,0.85,-75
11:21:32.394,2.47,-73
11:21:32.394,5.63,-72
11:21:32.394,6.85,-72
11:21:32.443,3.96,-72
11:21:32.443,1.69,-72
11:21:32.477,-0.84,-71
11:21:32.477,29.67,-71
11:21:32.511,60.14,-71
11:21:32.511,-21.61,-71
11:21:32.544,-22.86,-71
11:21:32.577,-20.91,-73
11:21:32.577,-19.71,-74
11:21:32.61,-19.81,-73
11:21:32.61,-19.33,-73
11:21:32.66,-18.31,-76
11:21:32.66,-16.45,-83
11:21:32.71,-13.26,-96
11:21:32.71,-9.7,-110
11:21:32.744,-5.15,-125
11:21:32.744,-1.33,-139
11:21:32.791,2.95,-150
11:21:32.791,6.74,-160
11:21:32.791,7.78,-169
11:21:32.825,7.86,-175
11:21:32.86,7.9,-180
11:21:32.86,8.13,-181
11:21:32.91,7.91,-180
11:21:32.91,8.46,-177
11:21:32.91,9.87,-171
11:21:32.944,12.87,-162
11:21:32.977,17.52,-153
11:21:32.977,22.24,-143
11:21:33.01,24.04,-136
11:21:33.01,23.23,-128
11:21:33.044,21.54,-121
11:21:33.093,18.72,-114
11:21:33.093,15.41,-108
11:21:33.093,11.5,-101
11:21:33.142,8.6,-96
11:21:33.142,7.07,-91
11:21:33.177,5.95,-87
11:21:33.177,5.32,-85
11:21:33.226,5.51,-83
11:21:33.226,4.93,-82
11:21:33.261,5.62,-78
11:21:33.261,6.15,-77
11:21:33.307,6.56,-75
11:21:33.307,7.06,-74
11:21:33.354,8.68,-72
11:21:33.354,9.83,-71
11:21:33.354,7.66,-71
11:21:33.401,5.13,-69
11:21:33.401,3.24,-69
11:21:33.448,11.75,-69
11:21:33.448,80.3,-71
11:21:33.448,-33.61,-70
11:21:33.494,-27.5,-70
11:21:33.494,-23.56,-69
11:21:33.542,-22.28,-70
11:21:33.542,-20.24,-68
11:21:33.589,-18.3,-67
11:21:33.589,-17.11,-69
11:21:33.589,-15.13,-77
11:21:33.635,-12.34,-90
11:21:33.635,-8.76,-104
11:21:33.682,-5.45,-121
11:21:33.682,-2.24,-135
11:21:33.728,0.43,-148
11:21:33.728,2.31,-160
11:21:33.728,2.94,-168
11:21:33.776,3.26,-176
11:21:33.776,2.95,-181
11:21:33.824,2.29,-184
11:21:33.824,1.78,-184
11:21:33.859,1.83,-183
11:21:33.859,2.58,-179
11:21:33.893,4.49,-174
11:21:33.893,7.18,-166
11:21:33.942,9.61,-157
11:21:33.942,10.88,-148
11:21:33.977,10.58,-140
11:21:33.977,9.63,-133
11:21:34.026,7.6,-125
11:21:34.026,4.86,-121
11:21:34.06,1.93,-113
11:21:34.06,-0.04,-107
11:21:34.109,-2.27,-102
11:21:34.109,-3.29,-97
11:21:34.109,-3.52,-93
11:21:34.158,-3.64,-90
11:21:34.158,-3.5,-86
11:21:34.193,-3.23,-85
11:21:34.193,-2.84,-83
11:21:34.226,-2.69,-80
11:21:34.26,-2.42,-80
11:21:34.26,-2.04,-79
11:21:34.316,-0.88,-78
11:21:34.316,1.71,-77
11:21:34.316,3.74,-78
11:21:34.361,0.38,-76
11:21:34.361,-1.39,-75
11:21:34.41,-2.72,-75
11:21:34.41,21.55,-75
11:21:34.41,60.79,-75
11:21:34.443,-27.95,-75
11:21:34.491,-28,-75
11:21:34.491,-25.61,-74
11:21:34.491,-23.27,-75
11:21:34.526,-21.19,-75
11:21:34.526,-19.24,-74
11:21:34.56,-16.25,-78
11:21:34.594,-12.16,-85
11:21:34.594,-8.07,-97
11:21:34.643,-4.35,-113
11:21:34.643,-0.55,-128
11:21:34.676,4.25,-144
11:21:34.676,7.51,-156
11:21:34.727,9.07,-166
11:21:34.727,10.17,-175
11:21:34.76,10.77,-182
11:21:34.76,10.83,-187
11:21:34.808,10.65,-188
11:21:34.808,10.72,-188
11:21:34.808,11.43,-184
11:21:34.842,12.89,-180
11:21:34.877,15.7,-175
11:21:34.877,18.94,-166
11:21:34.91,21.78,-156
11:21:34.91,22.68,-145
11:21:34.943,22.45,-136
11:21:34.993,20.24,-126
11:21:34.993,15.93,-119
11:21:34.993,10.79,-113
11:21:35.027,6.03,-108
11:21:35.027,2.59,-103
11:21:35.076,0.5,-99
11:21:35.076,-1.3,-94
11:21:35.109,-3.75,-91
11:21:35.109,-5.74,-86
11:21:35.159,-6.94,-83
11:21:35.159,-7.29,-81
11:21:35.208,-7.74,-79
11:21:35.208,-7.33,-76
11:21:35.208,-6.6,-74
11:21:35.241,-5.12,-72
11:21:35.277,-1.82,-73
11:21:35.277,3.75,-70
11:21:35.329,2.9,-70
11:21:35.329,1.49,-70
11:21:35.329,0.99,-70
11:21:35.376,2.38,-68
11:21:35.376,46.4,-68
11:21:35.426,-19.88,-69
11:21:35.426,-26.16,-68
11:21:35.476,-21.85,-69
11:21:35.476,-18.37,-70
11:21:35.476,-15.43,-70
11:21:35.51,-13.1,-71
11:21:35.51,-11.06,-71
11:21:35.543,-9.54,-75
11:21:35.593,-6.58,-86
11:21:35.593,-4.4,-101
11:21:35.593,-0.09,-118
11:21:35.627,5.32,-132
11:21:35.66,9.64,-144
11:21:35.66,11.74,-156
11:21:35.694,12.66,-166
11:21:35.694,12.44,-172
11:21:35.744,12.06,-181
11:21:35.744,11.12,-186
11:21:35.778,10.36,-188
11:21:35.778,9.78,-187
11:21:35.824,10.07,-183
11:21:35.824,11.08,-175
11:21:35.824,12.24,-165
11:21:35.858,13.48,-155
11:21:35.893,14.73,-146
11:21:35.893,15.38,-137
11:21:35.927,15.02,-130
11:21:35.927,13.64,-121
11:21:35.96,11.33,-115
11:21:36.01,8.22,-107
11:21:36.01,5,-102
11:21:36.01,2.08,-98
11:21:36.043,-0.85,-94
11:21:36.092,-2.57,-89
11:21:36.092,-2.73,-86
11:21:36.092,-3.08,-83
11:21:36.127,-2.82,-81
11:21:36.127,-2.44,-80
11:21:36.175,-2.16,-77
11:21:36.175,-1.76,-76
11:21:36.212,-1.07,-75
11:21:36.212,0.76,-74
11:21:36.264,3.05,-74
11:21:36.264,1.02,-73
11:21:36.308,-1.44,-72
11:21:36.308,-2.77,-73
11:21:36.308,-0.83,-74
11:21:36.342,49.01,-74
11:21:36.376,-30.15,-75
11:21:36.376,-31.81,-73
11:21:36.426,-29.85,-73
11:21:36.426,-28.66,-73
11:21:36.461,-27.04,-73
11:21:36.461,-25,-74
11:21:36.509,-22.54,-75
11:21:36.509,-19.72,-81
11:21:36.509,-15.47,-93
11:21:36.559,-12.1,-109
11:21:36.559,-8.53,-123
11:21:36.61,-4.75,-138
11:21:36.61,-0.8,-152
11:21:36.61,2.32,-163
11:21:36.657,4.79,-173
11:21:36.657,7.31,-180
11:21:36.692,8.38,-185
11:21:36.692,8.92,-188
11:21:36.742,10.06,-190
11:21:36.742,10.89,-191
11:21:36.792,12.53,-186
11:21:36.792,14.78,-179
11:21:36.792,18.31,-169
11:21:36.841,21.06,-159
11:21:36.841,22.25,-148
11:21:36.874,21.82,-136
11:21:36.874,19.91,-128
11:21:36.909,16.74,-120
11:21:36.909,12.17,-114
11:21:36.943,7.51,-108
11:21:36.943,3.9,-103
11:21:36.993,1.66,-98
11:21:36.993,0.99,-93
11:21:37.027,0.67,-90
11:21:37.027,0.24,-87
11:21:37.076,-0.05,-83
11:21:37.076,-0.04,-79
11:21:37.11,-0.03,-76
11:21:37.11,0.12,-75
11:21:37.16,0.52,-72
11:21:37.16,1.51,-70
11:21:37.207,2.82,-70
11:21:37.207,4.86,-67
11:21:37.207,8.02,-66
11:21:37.26,6.08,-65
11:21:37.26,2.75,-66
11:21:37.294,1.21,-66
11:21:37.294,2.58,-66
11:21:37.329,49.97,-66
11:21:37.329,-19.34,-65
11:21:37.376,-28.78,-66
11:21:37.376,-27.63,-67
11:21:37.41,-26.93,-69
11:21:37.41,-25.95,-70
11:21:37.46,-26.26,-72
11:21:37.46,-26.2,-74
11:21:37.509,-25.54,-79
11:21:37.509,-24.37,-92
11:21:37.509,-22.54,-107
11:21:37.543,-20.27,-122
11:21:37.577,-16.37,-135
11:21:37.577,-10.71,-148
11:21:37.61,-6.37,-161
11:21:37.61,-3.78,-173
11:21:37.643,-2.17,-182
11:21:37.643,-1,-187
11:21:37.693,-0.02,-192
11:21:37.693,1.48,-194
11:21:37.727,2.57,-193
11:21:37.727,4.47,-188
11:21:37.76,8.56,-179
11:21:37.794,14.26,-168
11:21:37.794,20.11,-157
11:21:37.841,23.17,-147
11:21:37.841,23.55,-137
11:21:37.875,22.71,-128
11:21:37.875,21.33,-122
11:21:37.91,19.43,-114
11:21:37.91,17.97,-107
11:21:37.96,16.69,-100
11:21:37.96,16.79,-95
11:21:38.009,16.6,-90
11:21:38.009,16.27,-85
11:21:38.009,16.21,-83
11:21:38.043,16.34,-81
11:21:38.077,16.44,-80
11:21:38.077,16.8,-76
11:21:38.11,16.83,-74
11:21:38.11,17.38,-72
11:21:38.144,17.63,-70
11:21:38.144,18.62,-68
11:21:38.192,20.31,-68
11:21:38.192,19.69,-66
11:21:38.225,15.51,-64
11:21:38.225,10.51,-64
11:21:38.277,5.05,-65
11:21:38.277,56.51,-64
11:21:38.31,42.48,-65
11:21:38.31,-16.72,-65
11:21:38.343,-22.18,-66
11:21:38.343,-19.73,-67
11:21:38.376,-19.4,-68
11:21:38.409,-17.96,-68
11:21:38.409,-16.37,-70
11:21:38.459,-14.63,-75
11:21:38.459,-12.09,-83
11:21:38.509,-9.1,-99
11:21:38.509,-5.46,-116
11:21:38.509,-1.36,-133
11:21:38.543,1.55,-147
11:21:38.577,3.88,-160
11:21:38.577,5.12,-173
11:21:38.626,5.08,-182
11:21:38.626,4.29,-188
11:21:38.626,3.21,-193
11:21:38.66,2.62,-194
11:21:38.709,3.45,-192
11:21:38.709,5.06,-192
11:21:38.709,8.52,-185
11:21:38.744,13.76,-175
11:21:38.778,19.6,-165
11:21:38.778,23.41,-154
11:21:38.824,23.69,-143
11:21:38.824,23.13,-132
11:21:38.824,20.57,-123
11:21:38.858,16.18,-113
11:21:38.892,10.81,-105
11:21:38.892,5.47,-100
11:21:38.943,1.17,-98
11:21:38.943,-2.3,-94
11:21:38.943,-5.34,-88
11:21:38.992,-8.64,-84
11:21:38.992,-11.82,-80
11:21:39.04,-14.47,-76
11:21:39.04,-17.14,-72
11:21:39.04,-18.3,-70
11:21:39.074,-18.54,-67
11:21:39.11,-18.93,-66
11:21:39.11,-18.71,-65
11:21:39.142,-17.54,-65
11:21:39.142,-14.25,-63
11:21:39.176,-10.89,-62
11:21:39.226,-13.41,-61
11:21:39.226,-14.84,-62
11:21:39.226,-14.9,-64
11:21:39.262,-4.66,-64
11:21:39.262,59.87,-66
11:21:39.309,-45.92,-69
11:21:39.309,-35.88,-70
11:21:39.343,-32.01,-72
11:21:39.376,-29.96,-74
11:21:39.376,-27.89,-75
11:21:39.41,-25.24,-75
11:21:39.41,-22,-78
11:21:39.444,-17.82,-86
11:21:39.444,-12.44,-99
11:21:39.493,-7.24,-114
11:21:39.493,-1.57,-131
11:21:39.527,4.93,-147
11:21:39.527,10.36,-163
11:21:39.576,14.33,-175
11:21:39.576,14.65,-187
11:21:39.61,15.11,-195
11:21:39.61,15.63,-202
11:21:39.643,15.72,-205
11:21:39.643,15.98,-205
11:21:39.676,16.55,-201
11:21:39.726,18.01,-197
11:21:39.726,20.81,-190
11:21:39.726,25.76,-180
11:21:39.76,29.99,-169
11:21:39.809,36.55,-158
11:21:39.809,36.26,-141
11:21:39.809,34.73,-130
11:21:39.857,32.12,-121
11:21:39.857,27.95,-110
11:21:39.893,23.11,-99
11:21:39.893,17.29,-89
11:21:39.926,13.53,-83
11:21:39.926,10.46,-78
11:21:39.976,6.75,-75
11:21:39.976,3.73,-74
11:21:40.01,1.28,-75
11:21:40.01,-1.65,-75
11:21:40.059,-3.02,-75
11:21:40.059,-3.37,-77
11:21:40.092,-3.27,-76
11:21:40.092,-2.76,-76
11:21:40.126,-1.51,-75
11:21:40.126,1.16,-72
11:21:40.176,3.85,-71
11:21:40.176,1.63,-70
11:21:40.21,0.64,-71
11:21:40.21,0.11,-71
11:21:40.244,10.16,-69
11:21:40.244,72.89,-69
11:21:40.293,-34.31,-69
11:21:40.293,-27.58,-70
11:21:40.326,-22.92,-71
11:21:40.326,-20.37,-71
11:21:40.36,-20.21,-69
11:21:40.36,-19.52,-68
11:21:40.408,-18.55,-70
11:21:40.408,-17.04,-76
11:21:40.443,-14.95,-85
11:21:40.443,-12.62,-97
11:21:40.492,-9.49,-113
11:21:40.492,-6.07,-129
11:21:40.526,-3.05,-147
11:21:40.526,-0.92,-164
11:21:40.56,-0.17,-178
