Time,II,PLETH
00:38:33.3,30.61,-137
00:38:33.3,42.85,-142
00:38:33.3,53.41,-146
00:38:33.3,63.25,-151
00:38:33.4,59.39,-151
00:38:33.4,51.18,-151
00:38:33.4,44.25,-149
00:38:33.4,36.85,-146
00:38:33.4,30.72,-142
00:38:33.5,14.11,-140
00:38:33.5,-168.9,-137
00:38:33.5,-286.79,-136
00:38:33.5,-265.66,-134
00:38:33.6,-101.87,-133
00:38:33.6,93.59,-130
00:38:33.6,223.65,-127
00:38:33.6,237.97,-123
00:38:33.6,221.12,-122
00:38:33.7,202.71,-121
00:38:33.7,187.12,-119
00:38:33.7,172.45,-116
00:38:33.7,165.3,-114
00:38:33.7,157.55,-115
00:38:33.7,137.07,-115
00:38:33.7,89.23,-114
00:38:33.8,32.33,-112
00:38:33.8,-21.73,-107
00:38:33.8,-77.16,-107
00:38:33.8,-118.54,-106
00:38:33.8,-148.09,-107
00:38:33.9,-149.6,-105
00:38:33.9,-142.03,-102
00:38:33.9,-127.61,-103
00:38:33.9,-108.55,-102
00:38:33.9,-105.99,-102
00:38:34,-110.94,-100
00:38:34,-111.46,-98
00:38:34,-107.04,-99
00:38:34,-99.48,-100
00:38:34,-87.22,-100
00:38:34.1,-60.24,-100
00:38:34.1,-30.81,-99
00:38:34.1,-12.84,-98
00:38:34.2,6.51,-97
00:38:34.2,17.04,-97
00:38:34.2,27.26,-97
00:38:34.2,35.84,-96
00:38:34.2,41.91,-94
00:38:34.3,45.24,-93
00:38:34.3,42.79,-93
00:38:34.3,37.46,-93
00:38:34.3,27.99,-92
00:38:34.3,16.8,-93
00:38:34.4,6.2,-93
00:38:34.4,-3.35,-92
00:38:34.4,45.9,-92
00:38:34.4,154.41,-92
00:38:34.4,166.93,-92
00:38:34.4,47.81,-94
00:38:34.4,-67.82,-92
00:38:34.5,-62.43,-93
00:38:34.5,-51.48,-94
00:38:34.5,-37.99,-93
00:38:34.5,-17.41,-94
00:38:34.5,2.64,-93
00:38:34.6,8.76,-95
00:38:34.6,7.18,-98
00:38:34.6,4.99,-105
00:38:34.6,3.43,-113
00:38:34.6,3.28,-122
00:38:34.7,9.4,-130
00:38:34.7,24.2,-136
00:38:34.7,39.27,-141
00:38:34.7,47.3,-146
00:38:34.8,51.9,-149
00:38:34.8,54.52,-151
00:38:34.8,47.74,-151
00:38:34.8,41.02,-149
00:38:34.8,35.56,-145
00:38:34.8,31.09,-142
00:38:34.9,-88.02,-142
00:38:34.9,-287.89,-141
00:38:34.9,-275.59,-140
00:38:34.9,-155.14,-138
00:38:34.9,17.44,-134
00:38:35,196.17,-131
00:38:35,234.94,-131
00:38:35,218.42,-129
00:38:35.1,202.44,-126
00:38:35.1,188.87,-123
00:38:35.1,186.94,-119
00:38:35.1,183.72,-120
00:38:35.1,177.68,-119
00:38:35.1,159.97,-117
00:38:35.1,106.45,-116
00:38:35.2,26.26,-114
00:38:35.2,-48.57,-115
00:38:35.3,-103.45,-114
00:38:35.3,-143.69,-111
00:38:35.3,-161.38,-109
00:38:35.3,-164.72,-106
00:38:35.3,-154.59,-106
00:38:35.3,-139.74,-106
00:38:35.3,-120.98,-104
00:38:35.4,-105.19,-102
00:38:35.4,-95.3,-100
00:38:35.4,-83.19,-101
00:38:35.4,-62.99,-101
00:38:35.4,-35.36,-102
00:38:35.5,-17.98,-100
00:38:35.5,-7.98,-100
00:38:35.5,-3.57,-99
00:38:35.5,-0.69,-97
00:38:35.5,3.19,-96
00:38:35.6,9.92,-97
00:38:35.6,14.73,-97
00:38:35.6,16.38,-94
00:38:35.6,18.63,-95
00:38:35.6,20.69,-95
00:38:35.7,21.92,-96
00:38:35.7,21.62,-96
00:38:35.7,18.8,-95
00:38:35.7,59.19,-95
00:38:35.8,190.18,-95
00:38:35.8,172.29,-97
00:38:35.8,17.03,-97
00:38:35.8,-81.91,-98
00:38:35.8,-82.91,-97
00:38:35.8,-76.91,-97
00:38:35.8,-68.56,-97
00:38:35.9,-59.02,-95
00:38:35.9,-50.54,-96
00:38:35.9,-40.74,-96
00:38:35.9,-37.23,-99
00:38:36,-37.12,-109
00:38:36,-34.41,-120
00:38:36,-25.96,-129
00:38:36,-7.28,-136
00:38:36.1,14.85,-143
00:38:36.1,31.35,-147
00:38:36.1,43.1,-150
00:38:36.1,51.52,-151
00:38:36.1,49.41,-153
00:38:36.2,40.72,-152
00:38:36.2,32.92,-151
00:38:36.2,30.67,-149
00:38:36.2,19.27,-146
00:38:36.2,-25.65,-143
00:38:36.3,-113.75,-141
00:38:36.3,-181.02,-139
00:38:36.3,-165.97,-140
00:38:36.3,5.32,-137
00:38:36.3,172.62,-134
00:38:36.4,153.1,-130
00:38:36.4,144.85,-126
00:38:36.4,131.5,-124
00:38:36.4,124.57,-125
00:38:36.4,119.64,-121
00:38:36.5,114.66,-117
00:38:36.5,110.8,-115
00:38:36.5,101.48,-116
00:38:36.5,77.85,-115
00:38:36.5,42.12,-113
00:38:36.6,9.54,-111
00:38:36.6,-18.99,-108
00:38:36.6,-47.27,-109
00:38:36.6,-76.82,-112
00:38:36.6,-90.37,-115
00:38:36.7,-92.17,-117
00:38:36.7,-89.31,-115
00:38:36.7,-84.9,-113
00:38:36.7,-71.46,-111
00:38:36.7,-51.2,-108
00:38:36.8,-38.69,-107
00:38:36.8,-34.24,-106
00:38:36.8,-32.01,-104
00:38:36.8,-30.72,-103
00:38:36.8,-26.89,-101
00:38:36.8,-17.14,-100
00:38:36.9,-10.06,-99
00:38:36.9,-6.64,-98
00:38:36.9,-5.86,-97
00:38:36.9,-6.98,-96
00:38:36.9,-8.26,-97
00:38:36.9,-6.02,-97
00:38:37,-0.45,-96
00:38:37,4.04,-96
00:38:37,5.46,-96
00:38:37,8.74,-95
00:38:37,10.92,-95
00:38:37.1,12.12,-95
00:38:37.1,12.41,-96
00:38:37.1,12.04,-97
00:38:37.1,12.03,-98
00:38:37.2,12.97,-98
00:38:37.2,13.65,-98
00:38:37.2,14.85,-96
00:38:37.2,15.91,-95
00:38:37.2,16.2,-95
00:38:37.3,16.38,-94
00:38:37.3,17.29,-93
00:38:37.3,17.45,-93
00:38:37.3,16.98,-92
00:38:37.3,17.56,-92
00:38:37.4,19.27,-92
00:38:37.4,21.09,-92
00:38:37.4,18.57,-91
00:38:37.4,24.5,-93
00:38:37.4,90.16,-94
00:38:37.5,183.74,-93
00:38:37.5,61.91,-95
00:38:37.5,-79.22,-95
00:38:37.5,-88.39,-95
00:38:37.6,-78.39,-95
00:38:37.6,-67.56,-94
00:38:37.6,-64.06,-94
00:38:37.6,-59.08,-93
00:38:37.6,-56.05,-92
00:38:37.7,-50.69,-95
00:38:37.7,-47.38,-101
00:38:37.7,-43.59,-110
00:38:37.7,-36.51,-119
00:38:37.7,-22.26,-128
00:38:37.7,-3.54,-136
00:38:37.7,4.73,-141
00:38:37.8,9.14,-147
00:38:37.8,19.31,-151
00:38:37.8,28.79,-151
00:38:37.8,31.96,-149
00:38:37.9,29.58,-147
00:38:37.9,28.08,-148
00:38:37.9,35.66,-146
00:38:37.9,-27.55,-144
00:38:38,-253.95,-142
00:38:38,-260.71,-139
00:38:38,-237.93,-138
00:38:38,-32.77,-138
00:38:38,174.26,-137
00:38:38,278.2,-134
00:38:38.1,284.45,-130
00:38:38.1,264.15,-126
00:38:38.1,243.01,-125
00:38:38.1,226.74,-123
00:38:38.1,219.19,-120
00:38:38.1,201.28,-118
00:38:38.2,173.61,-117
00:38:38.2,129.66,-116
00:38:38.2,69.61,-116
00:38:38.2,4.51,-115
00:38:38.2,-64.63,-114
00:38:38.3,-111.93,-110
00:38:38.3,-138.3,-109
00:38:38.3,-157.5,-110
00:38:38.3,-162.97,-109
00:38:38.4,-157.94,-108
00:38:38.4,-150.75,-105
00:38:38.4,-138.74,-105
00:38:38.4,-123.62,-104
00:38:38.4,-104.09,-103
00:38:38.4,-81.55,-102
00:38:38.5,-63.92,-100
00:38:38.5,-50.39,-99
00:38:38.5,-46.76,-98
00:38:38.5,-40.26,-98
00:38:38.6,-34.75,-98
00:38:38.6,-26.55,-98
00:38:38.6,-13.63,-97
00:38:38.6,-5.41,-99
00:38:38.6,13.89,-99
00:38:38.6,112.12,-98
00:38:38.7,205.17,-97
00:38:38.7,96.62,-98
00:38:38.7,-71.69,-97
00:38:38.7,-90.92,-97
00:38:38.8,-75.41,-96
00:38:38.8,-53.54,-94
00:38:38.8,-34.58,-93
00:38:38.8,-23.28,-93
00:38:38.8,-19.85,-93
00:38:38.9,-17.93,-97
00:38:38.9,-13.88,-104
00:38:38.9,-9,-113
00:38:38.9,-3.68,-122
00:38:38.9,10.77,-130
00:38:38.9,32.73,-137
00:38:39,47,-144
00:38:39,61.37,-149
00:38:39,71.99,-149
00:38:39,70.73,-151
00:38:39,64.36,-152
00:38:39.1,54.87,-149
00:38:39.1,49.6,-147
00:38:39.1,48.22,-143
00:38:39.1,42.54,-140
00:38:39.1,33.42,-139
00:38:39.2,26.75,-137
00:38:39.2,21.89,-136
00:38:39.2,17.35,-136
00:38:39.2,4.42,-136
00:38:39.3,23.38,-133
00:38:39.3,152.21,-130
00:38:39.3,232.12,-127
00:38:39.3,36.88,-125
00:38:39.3,-114.58,-122
00:38:39.4,-109.33,-123
00:38:39.4,-100.81,-120
00:38:39.4,-86.73,-118
00:38:39.4,-76.91,-115
00:38:39.4,-73.85,-114
00:38:39.5,-70.56,-114
00:38:39.5,-67.62,-113
00:38:39.5,-63.52,-114
00:38:39.5,-54.18,-114
00:38:39.5,-38.96,-115
00:38:39.6,-24.07,-121
00:38:39.6,-12.39,-128
00:38:39.6,-3.7,-134
00:38:39.6,1.55,-139
00:38:39.6,12.39,-143
00:38:39.6,22.03,-144
00:38:39.7,26.3,-143
00:38:39.7,30.73,-140
00:38:39.7,38.67,-136
00:38:39.7,45.6,-134
00:38:39.8,45.27,-134
00:38:39.8,39.97,-133
00:38:39.8,33.83,-132
00:38:39.8,29.23,-130
00:38:39.8,28.12,-128
00:38:39.9,30.34,-124
00:38:39.9,22.72,-120
00:38:39.9,66.49,-118
00:38:39.9,192.36,-117
00:38:39.9,182.72,-116
00:38:40,31.06,-115
00:38:40,-95.97,-113
00:38:40,-85.75,-109
00:38:40,-83.93,-108
00:38:40,-80.76,-107
00:38:40.1,-76.94,-107
00:38:40.1,-72.91,-107
00:38:40.1,-67.43,-108
00:38:40.1,-60.19,-105
00:38:40.1,-45.21,-108
00:38:40.2,-26.93,-113
00:38:40.2,-9.12,-119
00:38:40.2,3.81,-127
00:38:40.2,17.29,-133
00:38:40.2,29.79,-139
00:38:40.2,31.9,-142
00:38:40.3,33.81,-142
00:38:40.3,31.51,-141
00:38:40.3,25.15,-140
00:38:40.3,17,-138
00:38:40.4,13.01,-135
00:38:40.4,8.58,-133
00:38:40.4,3.95,-132
00:38:40.4,3.49,-129
00:38:40.4,4.01,-127
00:38:40.5,3.72,-123
00:38:40.5,3.07,-120
00:38:40.5,0.49,-118
00:38:40.5,-8.25,-116
00:38:40.5,-21.22,-114
00:38:40.6,-26.26,-112
00:38:40.6,-31.48,-111
00:38:40.6,-37.91,-110
00:38:40.6,-25.62,-109
00:38:40.6,56.49,-107
00:38:40.6,159.37,-104
00:38:40.7,60.81,-101
00:38:40.7,-95.49,-101
00:38:40.7,-98.8,-102
00:38:40.7,-88.27,-101
00:38:40.8,-72.05,-101
00:38:40.8,-46.44,-99
00:38:40.8,-25.45,-97
00:38:40.8,-12.52,-97
00:38:40.8,-8.82,-96
00:38:40.9,-9.42,-97
00:38:40.9,-5.27,-102
00:38:40.9,2.72,-107
00:38:40.9,13.38,-112
00:38:40.9,29.84,-119
00:38:41,45.9,-127
00:38:41,47.36,-132
00:38:41,44.45,-137
00:38:41,42.97,-139
00:38:41,42.98,-136
00:38:41,41.38,-132
00:38:41.1,37.97,-129
00:38:41.1,35.24,-127
00:38:41.1,34.75,-127
00:38:41.1,31.42,-125
00:38:41.1,26.17,-125
00:38:41.2,20.35,-121
00:38:41.2,14,-120
00:38:41.2,7.04,-117
00:38:41.2,5.37,-114
00:38:41.2,6.47,-114
00:38:41.3,6.31,-112
00:38:41.3,-1.22,-113
00:38:41.3,34.71,-112
00:38:41.3,141.85,-109
00:38:41.4,181.55,-107
00:38:41.4,25.01,-102
00:38:41.4,-74.94,-101
00:38:41.4,-72.25,-99
00:38:41.4,-65.06,-99
00:38:41.4,-58.89,-98
00:38:41.5,-53.55,-96
00:38:41.5,-47.57,-96
00:38:41.5,-41.47,-95
00:38:41.5,-34.83,-95
00:38:41.5,-30.57,-97
00:38:41.6,-23.88,-100
00:38:41.6,-16.42,-102
00:38:41.6,-12.25,-106
00:38:41.6,-0.25,-114
00:38:41.6,21.92,-120
00:38:41.7,35.3,-126
00:38:41.7,35.77,-130
00:38:41.7,34.19,-132
00:38:41.7,29.73,-132
00:38:41.8,19.09,-128
00:38:41.8,12.42,-125
00:38:41.8,9.95,-123
00:38:41.8,9.52,-122
00:38:41.8,10.66,-120
00:38:41.9,11.07,-119
00:38:41.9,11.57,-119
00:38:41.9,10.97,-118
00:38:41.9,10.06,-116
00:38:41.9,9.08,-112
00:38:41.9,8.81,-109
00:38:42,7.53,-106
00:38:42,4.56,-104
00:38:42,42.88,-103
00:38:42,151.96,-102
00:38:42.1,109.61,-101
00:38:42.1,-66.79,-99
00:38:42.1,-120.11,-98
00:38:42.1,-110.53,-96
00:38:42.1,-97.92,-95
00:38:42.1,-82.89,-94
00:38:42.2,-67.24,-93
00:38:42.2,-58.08,-93
00:38:42.2,-54.95,-92
00:38:42.2,-53.53,-94
00:38:42.2,-49.1,-96
00:38:42.3,-34.57,-102
00:38:42.3,-13.87,-109
00:38:42.3,7.99,-116
00:38:42.3,25.12,-122
00:38:42.4,35.7,-128
00:38:42.4,35.89,-128
00:38:42.4,33.55,-132
00:38:42.4,30.63,-133
00:38:42.4,25.93,-134
00:38:42.4,20.83,-132
00:38:42.5,18.44,-127
00:38:42.5,16.99,-124
00:38:42.5,14.45,-123
00:38:42.5,19.24,-122
00:38:42.5,23.75,-121
00:38:42.6,25.3,-118
00:38:42.6,25.18,-116
00:38:42.6,24.85,-114
00:38:42.6,24.88,-112
00:38:42.7,24.12,-108
00:38:42.7,24.31,-105
00:38:42.7,24.06,-103
00:38:42.7,23.34,-102
00:38:42.7,22.88,-102
00:38:42.7,21.92,-101
00:38:42.8,20.12,-101
00:38:42.8,15.47,-99
00:38:42.8,11.82,-97
00:38:42.8,9.25,-96
00:38:42.9,4.61,-94
00:38:42.9,-1.27,-92
00:38:42.9,-3.7,-92
00:38:42.9,-11.15,-91
00:38:42.9,30.54,-91
00:38:42.9,158.77,-91
00:38:43,160.85,-91
00:38:43,42.69,-91
00:38:43,-111.51,-92
00:38:43,-106.32,-92
00:38:43,-99.6,-91
00:38:43,-91.44,-89
00:38:43.1,-82.5,-88
00:38:43.1,-71.48,-88
00:38:43.1,-60.48,-87
00:38:43.2,-51.94,-88
00:38:43.2,-41.21,-93
00:38:43.2,-31.69,-99
00:38:43.2,-21.48,-107
00:38:43.2,-1.95,-114
00:38:43.2,18.18,-121
00:38:43.2,26.1,-127
00:38:43.3,26.64,-132
00:38:43.3,28.77,-136
00:38:43.3,31.51,-137
00:38:43.3,33.28,-135
00:38:43.3,33.18,-131
00:38:43.4,34.22,-127
00:38:43.4,34.43,-126
00:38:43.4,32.51,-125
00:38:43.4,36.2,-125
00:38:43.5,33.73,-124
00:38:43.5,-72.24,-122
00:38:43.5,-204.01,-121
00:38:43.5,-54.6,-120
00:38:43.5,-32.4,-118
00:38:43.6,42.35,-117
00:38:43.6,177.58,-114
00:38:43.6,174.23,-110
00:38:43.6,162.91,-106
00:38:43.6,148.51,-106
00:38:43.7,138.73,-104
00:38:43.7,133.91,-102
00:38:43.7,130.29,-99
00:38:43.7,121.69,-97
00:38:43.8,103.03,-97
00:38:43.8,65.43,-97
00:38:43.8,17.68,-99
00:38:43.8,-19.37,-99
00:38:43.8,-49.41,-99
00:38:43.8,-73.66,-100
00:38:43.9,-98.33,-98
00:38:43.9,-125.57,-97
00:38:43.9,-86.27,-94
00:38:43.9,-33.26,-93
00:38:44,-57.97,-92
00:38:44,-167.2,-90
00:38:44,-79.5,-90
00:38:44,-32.82,-91
00:38:44,-19.41,-90
00:38:44,-16.38,-92
00:38:44.1,-14.2,-91
00:38:44.1,-12.45,-91
00:38:44.1,-8.19,-91
00:38:44.1,2.54,-90
00:38:44.1,19.09,-91
00:38:44.2,32.89,-93
00:38:44.2,34.31,-93
00:38:44.2,32.37,-95
00:38:44.2,26.35,-97
00:38:44.2,16.71,-100
00:38:44.2,11.54,-101
00:38:44.3,15.46,-100
00:38:44.3,30.57,-99
00:38:44.3,116.7,-99
00:38:44.3,263.21,-98
00:38:44.4,255.5,-97
00:38:44.4,240.04,-96
00:38:44.4,207.8,-96
00:38:44.4,-171.06,-96
00:38:44.4,-374.73,-95
00:38:44.4,-345.38,-94
00:38:44.5,-316.44,-93
00:38:44.5,-286.2,-92
00:38:44.5,-257.52,-95
00:38:44.5,-227.27,-96
00:38:44.6,-196.16,-97
00:38:44.6,-161.8,-96
00:38:44.6,-106.15,-95
00:38:44.6,-42.92,-94
00:38:44.6,43.04,-96
00:38:44.6,113.56,-96
00:38:44.7,151.26,-97
00:38:44.7,174.92,-99
00:38:44.7,181.07,-101
00:38:44.7,182.19,-102
00:38:44.7,174.35,-100
00:38:44.8,156.75,-99
00:38:44.8,139.49,-96
00:38:44.8,121.45,-96
00:38:44.8,106.11,-96
00:38:44.9,94.96,-96
00:38:44.9,83.4,-98
00:38:44.9,70.29,-98
00:38:44.9,53.56,-98
00:38:44.9,45.47,-99
00:38:45,39.17,-98
00:38:45,33.56,-98
00:38:45,25.89,-97
00:38:45,15.8,-96
00:38:45,3.7,-94
00:38:45.1,-3.86,-95
00:38:45.1,-3.36,-96
00:38:45.1,-1.67,-95
00:38:45.1,-0.71,-95
00:38:45.1,-1.11,-95
00:38:45.2,-3.95,-95
00:38:45.2,-14.53,-94
00:38:45.2,-0.76,-94
00:38:45.2,90.49,-92
00:38:45.2,160.82,-92
00:38:45.2,28.65,-92
00:38:45.3,-112.03,-92
00:38:45.3,-124.19,-92
00:38:45.3,-119.28,-91
00:38:45.3,-108.87,-93
00:38:45.4,-89.35,-94
00:38:45.4,-73.99,-95
00:38:45.4,-60.14,-97
00:38:45.4,-44.52,-102
00:38:45.4,-44.85,-108
00:38:45.4,-51.21,-114
00:38:45.5,-49.05,-119
00:38:45.5,-32.15,-125
00:38:45.5,-6.26,-131
00:38:45.6,5.43,-134
00:38:45.6,11.74,-135
00:38:45.6,20.34,-135
00:38:45.6,26.6,-133
00:38:45.6,29.01,-130
00:38:45.6,23.71,-127
00:38:45.6,29.77,-126
00:38:45.7,22.56,-126
00:38:45.7,-144.61,-125
00:38:45.7,-249.9,-124
00:38:45.7,-231.6,-121
00:38:45.8,-63.95,-118
00:38:45.8,149.79,-116
00:38:45.8,283.99,-116
00:38:45.8,302.7,-116
00:38:45.9,279.33,-117
00:38:45.9,252.67,-114
00:38:45.9,231.26,-113
00:38:45.9,210.22,-115
00:38:45.9,193.77,-114
00:38:45.9,174.91,-113
00:38:45.9,145.39,-110
00:38:46,91.64,-109
00:38:46,17.1,-108
00:38:46,-49.04,-106
00:38:46,-98.42,-106
00:38:46,-134.76,-104
00:38:46.1,-147.22,-102
00:38:46.1,-145.73,-102
00:38:46.1,-140.88,-101
00:38:46.1,-133.69,-102
00:38:46.2,-122.39,-103
00:38:46.2,-104.61,-102
00:38:46.2,-87.94,-102
00:38:46.2,-72.5,-102
00:38:46.2,-57.62,-102
00:38:46.2,-43.48,-101
00:38:46.3,-33.67,-101
00:38:46.3,-28.89,-98
00:38:46.3,-27.37,-97
00:38:46.3,-24.4,-97
00:38:46.3,-20.53,-96
00:38:46.4,-15.41,-97
00:38:46.4,-10.81,-98
00:38:46.4,-15.28,-98
00:38:46.4,13.83,-98
00:38:46.4,136.78,-98
00:38:46.5,204.8,-98
00:38:46.5,33.2,-97
00:38:46.5,-87.32,-95
00:38:46.5,-83.31,-95
00:38:46.6,-76.85,-95
00:38:46.6,-68.7,-95
00:38:46.6,-55.6,-95
00:38:46.6,-42.14,-94
00:38:46.6,-32.05,-95
00:38:46.6,-25.13,-99
00:38:46.7,-25.06,-107
00:38:46.7,-26.13,-115
00:38:46.7,-19.99,-122
00:38:46.7,-0.66,-126
00:38:46.7,24.56,-130
00:38:46.8,41.69,-131
00:38:46.8,53.31,-132
00:38:46.8,56.37,-132
00:38:46.8,50.81,-131
00:38:46.9,43.75,-131
00:38:46.9,43.34,-131
00:38:46.9,38.39,-129
00:38:46.9,8.04,-126
00:38:46.9,-75.21,-125
00:38:46.9,-166.92,-123
00:38:47,-142.43,-124
00:38:47,25.12,-122
00:38:47,198.13,-121
00:38:47,203.69,-118
00:38:47.1,205.68,-115
00:38:47.1,201.38,-113
00:38:47.1,190.94,-113
00:38:47.1,172.93,-113
00:38:47.1,146.14,-111
00:38:47.1,112.07,-110
00:38:47.2,86.19,-111
00:38:47.2,54.37,-111
00:38:47.2,11.77,-110
00:38:47.2,-33.12,-109
00:38:47.2,-76.8,-109
00:38:47.3,-120.59,-106
00:38:47.3,-144.43,-105
00:38:47.3,-150.21,-104
00:38:47.3,-142.64,-104
00:38:47.4,-129.72,-103
00:38:47.4,-114.29,-102
00:38:47.4,-97.6,-99
00:38:47.4,-85.25,-99
00:38:47.5,-73.21,-99
00:38:47.5,-63.31,-99
00:38:47.5,-38.89,-100
00:38:47.5,-2.03,-101
00:38:47.5,8.6,-102
00:38:47.6,9.52,-101
00:38:47.6,5.46,-100
00:38:47.6,-2.02,-99
00:38:47.6,-7.47,-99
00:38:47.6,-9.31,-98
00:38:47.7,-4.63,-98
00:38:47.7,-0.59,-97
00:38:47.7,3.88,-97
00:38:47.7,2.03,-98
00:38:47.7,41.07,-98
00:38:47.7,156.23,-98
00:38:47.7,168.04,-96
00:38:47.8,46.65,-96
00:38:47.8,-61.56,-96
00:38:47.8,-64.73,-97
00:38:47.8,-54.92,-97
00:38:47.8,-38.02,-97
00:38:47.9,-21.29,-98
00:38:47.9,-13.35,-100
00:38:47.9,-9.54,-101
00:38:47.9,-7.79,-104
00:38:47.9,-5.47,-111
00:38:48,-0.63,-115
00:38:48,14.1,-119
00:38:48,43.72,-123
00:38:48.1,65.1,-127
00:38:48.1,66.51,-130
00:38:48.1,65.8,-132
00:38:48.1,64.12,-132
00:38:48.1,60.31,-130
00:38:48.2,53.89,-127
00:38:48.2,47.77,-124
00:38:48.2,54.78,-121
00:38:48.2,-33.38,-122
00:38:48.2,-290.55,-123
00:38:48.3,-290.02,-123
00:38:48.3,-275.39,-121
00:38:48.3,-75.57,-120
00:38:48.3,68.04,-119
00:38:48.3,177.83,-118
00:38:48.3,252.72,-118
00:38:48.4,251.18,-116
00:38:48.4,241.37,-112
00:38:48.4,225.58,-111
00:38:48.4,205.99,-111
00:38:48.4,193.66,-111
00:38:48.4,174.69,-109
00:38:48.5,137.52,-107
00:38:48.5,80.79,-106
00:38:48.5,19.45,-107
00:38:48.6,-43.07,-107
00:38:48.6,-105.27,-106
00:38:48.6,-158.5,-104
00:38:48.6,-189.07,-103
00:38:48.6,-195.39,-104
00:38:48.7,-186.34,-104
00:38:48.7,-168.77,-104
00:38:48.7,-141.55,-103
00:38:48.7,-116.36,-102
00:38:48.7,-102.28,-102
00:38:48.7,-93.18,-102
00:38:48.7,-77.09,-101
00:38:48.8,-48.06,-100
00:38:48.8,-14.37,-99
00:38:48.8,14.13,-98
00:38:48.8,30.52,-98
00:38:48.9,37.23,-96
00:38:48.9,40,-98
00:38:48.9,42.3,-99
00:38:48.9,40.95,-98
00:38:48.9,42.38,-100
00:38:48.9,45.9,-100
00:38:49,48.78,-102
00:38:49,48.87,-101
00:38:49,47.14,-100
00:38:49.1,46.14,-100
00:38:49.1,47.28,-100
00:38:49.1,42.84,-100
00:38:49.1,69.58,-102
00:38:49.1,162.12,-102
00:38:49.2,196.56,-102
00:38:49.2,32.65,-99
00:38:49.2,-81.37,-98
00:38:49.2,-76.4,-98
00:38:49.2,-67.36,-99
00:38:49.2,-56.37,-99
00:38:49.2,-47.96,-100
00:38:49.3,-45.6,-100
00:38:49.3,-43.97,-102
00:38:49.3,-39.4,-106
00:38:49.3,-35.11,-112
00:38:49.4,-34.12,-117
00:38:49.4,-26.1,-122
00:38:49.4,-7.76,-127
00:38:49.4,6.85,-133
00:38:49.4,10.37,-137
00:38:49.5,16.29,-140
00:38:49.5,24.52,-138
00:38:49.5,25.94,-137
00:38:49.5,18.04,-135
00:38:49.6,9.81,-134
00:38:49.6,1.83,-133
00:38:49.6,-5.6,-133
00:38:49.6,-30.88,-130
00:38:49.6,-130.75,-130
00:38:49.6,-277.35,-129
00:38:49.6,-264.81,-127
00:38:49.7,-229.9,-124
00:38:49.7,95.18,-120
00:38:49.7,209.57,-119
00:38:49.8,200.71,-118
00:38:49.8,188.66,-116
00:38:49.8,175.25,-114
00:38:49.8,167.76,-113
00:38:49.8,172,-114
00:38:49.9,172,-114
00:38:49.9,165.98,-113
00:38:49.9,141.81,-111
00:38:49.9,84.69,-113
00:38:49.9,21.75,-112
00:38:49.9,-32.43,-113
00:38:49.9,-73.48,-113
00:38:50,-110.54,-112
00:38:50,-132.22,-109
00:38:50,-135.05,-108
00:38:50,-132.99,-108
00:38:50,-126.75,-108
00:38:50.1,-119.23,-105
00:38:50.1,-104.03,-102
00:38:50.1,-87.14,-103
00:38:50.1,-71.58,-104
00:38:50.2,-64.94,-104
00:38:50.2,-55.19,-104
00:38:50.2,-43.52,-104
00:38:50.2,-30.4,-102
00:38:50.2,-24.18,-101
00:38:50.2,-16.21,-103
00:38:50.3,-5.15,-104
00:38:50.3,1.85,-105
00:38:50.3,5.35,-106
00:38:50.3,6.62,-105
00:38:50.3,7.14,-104
00:38:50.4,6.2,-102
00:38:50.4,8.69,-101
00:38:50.4,15.05,-102
00:38:50.4,24.45,-100
00:38:50.5,35.97,-99
00:38:50.5,127.47,-99
00:38:50.5,246.8,-100
00:38:50.5,141.22,-100
00:38:50.5,-42.96,-100
00:38:50.5,-78.18,-99
00:38:50.6,-61.69,-98
00:38:50.6,-42.7,-98
00:38:50.6,-27.01,-97
00:38:50.6,-20.04,-96
00:38:50.7,-23.51,-98
00:38:50.7,-25.19,-101
00:38:50.7,-25.12,-108
00:38:50.7,-24.51,-115
00:38:50.7,-22.32,-122
00:38:50.7,-12.21,-127
00:38:50.8,6.77,-131
00:38:50.8,18.32,-134
00:38:50.8,16.16,-136
00:38:50.9,24.91,-138
00:38:50.9,41,-142
00:38:50.9,41.68,-139
00:38:50.9,39.24,-137
00:38:50.9,38.74,-134
00:38:50.9,34.46,-129
00:38:50.9,6.62,-128
00:38:51,-78.48,-127
00:38:51,-162.9,-126
00:38:51,-200.03,-124
00:38:51,-58.63,-123
00:38:51,158.49,-121
00:38:51.1,160.89,-119
00:38:51.1,171.85,-118
00:38:51.1,166.35,-117
00:38:51.1,154.29,-115
00:38:51.2,147.11,-114
00:38:51.2,137.85,-114
00:38:51.2,134.94,-114
00:38:51.2,132.14,-115
00:38:51.3,116.21,-113
00:38:51.3,71.24,-110
00:38:51.3,19.09,-109
00:38:51.3,-22.18,-110
00:38:51.3,-62.01,-109
00:38:51.3,-96.78,-109
00:38:51.3,-126.17,-110
00:38:51.4,-133.93,-107
00:38:51.4,-132.14,-107
00:38:51.4,-120.61,-107
00:38:51.4,-91.35,-108
00:38:51.5,-59.11,-107
00:38:51.5,-51.02,-105
00:38:51.5,-50.39,-103
00:38:51.5,-49.02,-103
00:38:51.5,-46.9,-103
00:38:51.5,-39.73,-105
00:38:51.6,-23.28,-105
00:38:51.6,-3.94,-105
00:38:51.6,4.7,-104
00:38:51.6,5.5,-105
00:38:51.7,2.84,-104
00:38:51.7,3.31,-103
00:38:51.7,5.69,-101
00:38:51.7,6.87,-101
00:38:51.8,17.81,-101
00:38:51.8,105.79,-101
00:38:51.8,203.58,-101
00:38:51.8,94.24,-102
00:38:51.8,-48,-101
00:38:51.8,-63.01,-98
00:38:51.8,-69.39,-97
00:38:51.9,-59.41,-97
00:38:51.9,-45.71,-98
00:38:51.9,-33.94,-98
00:38:51.9,-30.74,-98
00:38:52,-29.88,-100
00:38:52,-29.19,-107
00:38:52,-31.26,-114
00:38:52,-30.5,-120
00:38:52.1,-21.57,-125
00:38:52.1,-0.65,-128
00:38:52.1,12.14,-131
00:38:52.1,17.38,-134
00:38:52.1,22.61,-137
00:38:52.1,29.01,-140
00:38:52.2,27.93,-140
00:38:52.2,25.22,-136
00:38:52.2,22.74,-135
00:38:52.2,24.41,-130
00:38:52.3,-5.53,-128
00:38:52.3,-219.26,-127
00:38:52.3,-257.28,-126
00:38:52.3,-237.22,-127
00:38:52.3,-70.02,-125
00:38:52.3,79.44,-122
00:38:52.3,212.62,-120
00:38:52.4,290.54,-118
00:38:52.4,294.54,-117
00:38:52.4,285.2,-118
00:38:52.5,269.48,-117
00:38:52.5,249.3,-114
00:38:52.5,226.45,-115
00:38:52.5,204.34,-115
00:38:52.5,171.94,-114
00:38:52.6,121.62,-112
00:38:52.6,52.8,-110
00:38:52.6,-23.18,-110
00:38:52.6,-94.58,-110
00:38:52.6,-146.53,-110
00:38:52.7,-169.26,-108
00:38:52.7,-168.31,-106
00:38:52.7,-161.72,-105
00:38:52.7,-152.89,-105
00:38:52.7,-143,-104
00:38:52.7,-134.44,-105
00:38:52.7,-126.45,-104
00:38:52.8,-113.96,-105
00:38:52.8,-87.47,-106
00:38:52.8,-60.26,-106
00:38:52.8,-39.07,-106
00:38:52.8,-29.36,-104
00:38:52.9,-23.45,-103
00:38:52.9,-16.05,-102
00:38:52.9,-8.7,-102
00:38:52.9,-6.04,-104
00:38:53,-6.93,-104
00:38:53,-8.71,-105
00:38:53,-9.85,-104
00:38:53,-9.27,-102
00:38:53,-7.56,-100
00:38:53.1,-3.4,-101
00:38:53.1,5.16,-100
00:38:53.1,12.92,-98
00:38:53.1,18.11,-98
00:38:53.1,20.14,-99
00:38:53.1,19.24,-101
00:38:53.2,20.17,-103
00:38:53.2,59.28,-103
00:38:53.2,189.16,-103
00:38:53.2,152.65,-101
00:38:53.3,-13.71,-101
00:38:53.3,-84.92,-102
00:38:53.3,-76.09,-103
00:38:53.3,-61.97,-103
00:38:53.3,-47.87,-101
00:38:53.3,-41.88,-101
00:38:53.4,-36.34,-100
00:38:53.4,-26.15,-103
00:38:53.4,-14.52,-110
00:38:53.4,-14.83,-117
00:38:53.5,-10.08,-125
00:38:53.5,4.89,-130
00:38:53.5,22.86,-134
00:38:53.5,31.49,-138
00:38:53.5,36.69,-141
00:38:53.5,45.35,-143
00:38:53.6,49.81,-147
00:38:53.6,48.38,-148
00:38:53.6,41.54,-146
00:38:53.6,37.11,-143
00:38:53.6,36.08,-140
00:38:53.7,12.95,-139
00:38:53.7,-219.45,-137
00:38:53.7,-277.57,-136
00:38:53.7,-255.29,-136
00:38:53.8,-10.1,-135
00:38:53.8,238.18,-132
00:38:53.8,285.18,-128
00:38:53.8,266.33,-127
00:38:53.8,240.46,-125
00:38:53.8,216.28,-123
00:38:53.9,199.32,-121
00:38:53.9,181.32,-118
00:38:53.9,154.63,-117
00:38:54,117.86,-118
00:38:54,66.54,-116
00:38:54,3.58,-114
00:38:54,-47.81,-112
00:38:54,-92.56,-111
00:38:54,-132.51,-112
00:38:54.1,-156.95,-113
00:38:54.1,-168.48,-111
00:38:54.1,-170.14,-110
00:38:54.1,-164.2,-108
00:38:54.2,-146.73,-107
00:38:54.2,-124.74,-106
00:38:54.2,-106.36,-106
00:38:54.2,-94.57,-105
00:38:54.2,-85.68,-103
00:38:54.2,-77.98,-100
00:38:54.2,-71.04,-101
00:38:54.3,-53.66,-103
00:38:54.3,-28.11,-103
00:38:54.3,-15.79,-103
00:38:54.3,12.06,-103
00:38:54.4,126.76,-102
00:38:54.4,214.81,-100
00:38:54.4,92.56,-101
00:38:54.4,-63.14,-102
00:38:54.4,-63.95,-103
00:38:54.4,-53.35,-102
00:38:54.5,-36.05,-101
00:38:54.5,-19.9,-100
00:38:54.5,-8.8,-99
00:38:54.5,-0.56,-98
00:38:54.6,-0.23,-100
00:38:54.6,-3.61,-106
00:38:54.6,-7.55,-112
00:38:54.6,-3.27,-121
00:38:54.6,9.01,-125
00:38:54.6,27.87,-131
00:38:54.7,45.14,-135
00:38:54.7,51.42,-139
00:38:54.7,59.77,-140
00:38:54.7,61.07,-140
00:38:54.8,58.54,-138
00:38:54.8,55.11,-135
00:38:54.8,55.07,-135
00:38:54.8,55.65,-133
00:38:54.8,50.72,-133
00:38:54.8,40.49,-131
00:38:54.9,25.39,-128
00:38:54.9,14.28,-128
00:38:54.9,10.25,-128
00:38:54.9,5.53,-127
00:38:54.9,4.27,-126
00:38:55,1.87,-125
00:38:55,-1.15,-123
00:38:55,-10.86,-123
00:38:55,22.66,-121
00:38:55,113.02,-118
00:38:55.1,149.31,-116
00:38:55.1,10.58,-115
00:38:55.1,-105.12,-113
00:38:55.1,-91.12,-113
00:38:55.1,-77.05,-112
00:38:55.2,-64.13,-110
00:38:55.2,-53.43,-108
00:38:55.2,-45.55,-107
00:38:55.2,-42.29,-107
00:38:55.3,-37.86,-109
00:38:55.3,-26.42,-110
00:38:55.3,-11.31,-113
00:38:55.3,2.51,-117
00:38:55.3,12.94,-122
00:38:55.3,28.14,-128
00:38:55.4,40.34,-134
00:38:55.4,42.74,-138
00:38:55.4,39.08,-140
00:38:55.4,31.29,-139
00:38:55.5,22.29,-137
00:38:55.5,13.83,-133
00:38:55.5,11.57,-130
00:38:55.5,10.86,-129
00:38:55.5,7.83,-128
00:38:55.5,4.76,-127
00:38:55.6,1.16,-126
00:38:55.6,0.65,-126
00:38:55.6,2.73,-125
00:38:55.6,7,-123
00:38:55.7,11.81,-121
00:38:55.7,10.94,-119
00:38:55.7,10.24,-117
00:38:55.7,10.17,-115
00:38:55.8,10.6,-115
00:38:55.8,10.47,-114
00:38:55.8,9.63,-114
00:38:55.8,6.08,-113
00:38:55.8,15.48,-113
00:38:55.8,87.06,-111
00:38:55.8,176.43,-108
00:38:55.9,44.44,-108
00:38:55.9,-93.24,-108
00:38:55.9,-92.08,-109
00:38:55.9,-85.89,-108
00:38:56,-76.92,-108
00:38:56,-68.15,-107
00:38:56,-57.95,-104
00:38:56,-56.75,-104
00:38:56,-57.28,-104
00:38:56,-52.34,-105
00:38:56.1,-39.14,-109
00:38:56.1,-21.16,-115
00:38:56.1,-13.96,-122
00:38:56.1,-9.27,-126
00:38:56.2,-0.4,-130
00:38:56.2,5.67,-132
00:38:56.2,5.31,-134
00:38:56.2,7.76,-137
00:38:56.3,13.17,-137
00:38:56.3,15.97,-137
00:38:56.3,16.41,-134
00:38:56.3,15.63,-133
00:38:56.3,14.02,-131
00:38:56.3,13.09,-128
00:38:56.3,15.36,-127
00:38:56.4,19.99,-127
00:38:56.4,23.11,-128
00:38:56.4,25.65,-128
00:38:56.5,26.2,-126
00:38:56.5,22.98,-122
00:38:56.5,23.77,-119
00:38:56.5,23.2,-116
00:38:56.5,20.15,-113
00:38:56.5,16.79,-113
00:38:56.6,17.7,-112
00:38:56.6,14.79,-111
00:38:56.6,44.52,-109
00:38:56.6,160.47,-105
00:38:56.6,193.34,-103
00:38:56.6,13.66,-103
00:38:56.7,-107.55,-103
00:38:56.7,-103.32,-104
00:38:56.7,-97.39,-102
00:38:56.8,-92.87,-100
00:38:56.8,-91.94,-100
00:38:56.8,-90.85,-100
00:38:56.8,-88.95,-102
00:38:56.8,-85.91,-102
00:38:56.8,-80.46,-103
00:38:56.8,-66.7,-105
00:38:56.9,-47.38,-110
00:38:56.9,-26.92,-115
00:38:56.9,-1.27,-121
00:38:56.9,20.42,-128
00:38:56.9,27.57,-131
00:38:57,27.23,-133
00:38:57,28.3,-133
00:38:57,29.19,-132
00:38:57,29.13,-129
00:38:57,30.49,-127
00:38:57.1,30.9,-126
00:38:57.1,27.62,-127
00:38:57.1,21.26,-126
00:38:57.1,17.14,-125
00:38:57.2,21.36,-121
00:38:57.2,29.24,-120
00:38:57.2,22.97,-119
00:38:57.2,101.07,-118
00:38:57.2,257.3,-117
00:38:57.2,173.1,-115
00:38:57.3,-35.7,-112
00:38:57.3,-82.84,-109
00:38:57.3,-71.07,-107
00:38:57.3,-61.65,-108
00:38:57.3,-51.37,-106
00:38:57.4,-43.06,-105
00:38:57.4,-37.1,-104
00:38:57.4,-30.53,-100
00:38:57.4,-25.33,-98
00:38:57.4,-16.91,-98
00:38:57.5,-4.87,-100
00:38:57.5,11.06,-105
00:38:57.5,20.69,-111
00:38:57.5,26.49,-117
00:38:57.6,32.23,-121
00:38:57.6,36.86,-124
00:38:57.6,36.43,-124
00:38:57.6,36.98,-124
00:38:57.6,35.26,-124
00:38:57.7,31.39,-123
00:38:57.7,25.45,-122
00:38:57.7,14.69,-121
00:38:57.7,0.8,-118
00:38:57.7,-7.73,-116
00:38:57.8,-12.12,-114
00:38:57.8,-11.55,-111
00:38:57.8,-10.99,-110
00:38:57.8,-9.81,-110
00:38:57.8,-9.57,-109
00:38:57.8,-10.88,-107
00:38:57.9,-12.26,-105
00:38:57.9,-13.92,-103
00:38:57.9,-14.89,-101
00:38:57.9,-13.47,-99
00:38:57.9,-11.82,-97
00:38:58,-9.96,-95
00:38:58,-8.97,-95
00:38:58,-6.56,-95
00:38:58,-6.01,-94
00:38:58,-4.85,-93
00:38:58.1,-3.45,-92
00:38:58.1,-0.62,-90
00:38:58.1,2.19,-91
00:38:58.1,2.9,-90
00:38:58.1,3.57,-90
00:38:58.2,1.19,-90
00:38:58.2,14.72,-91
00:38:58.2,109.2,-89
00:38:58.2,184.53,-88
00:38:58.3,41,-89
00:38:58.3,-85.69,-90
00:38:58.3,-82.25,-90
00:38:58.3,-76.51,-91
00:38:58.3,-67.73,-90
00:38:58.3,-57.36,-90
00:38:58.4,-44.76,-90
00:38:58.4,-36.44,-90
00:38:58.4,-31.99,-91
00:38:58.4,-30.98,-94
00:38:58.4,-26.81,-100
00:38:58.5,-17.58,-105
00:38:58.5,-3.39,-112
00:38:58.5,18.19,-119
00:38:58.5,23.96,-127
00:38:58.5,23.98,-132
00:38:58.6,25.44,-133
00:38:58.6,30.35,-134
00:38:58.6,32.01,-132
00:38:58.6,28.95,-130
00:38:58.6,23.67,-127
00:38:58.7,8.36,-124
00:38:58.7,-10.59,-124
00:38:58.7,-154.76,-123
00:38:58.7,-148.42,-121
00:38:58.7,-78.48,-118
00:38:58.8,78.37,-116
00:38:58.8,151.58,-115
00:38:58.8,142.14,-115
00:38:58.8,132.34,-115
00:38:58.8,122.22,-112
00:38:58.8,115.88,-110
00:38:58.9,108.72,-109
00:38:58.9,101.6,-109
00:38:58.9,94.54,-109
00:38:58.9,82.51,-107
00:38:59,58.58,-105
00:38:59,31.08,-103
00:38:59,-4.77,-102
00:38:59,-48.07,-101
00:38:59,-82.34,-100
00:38:59.1,-95.02,-100
00:38:59.1,-93.66,-99
00:38:59.1,-87.54,-98
00:38:59.1,-73.88,-95
00:38:59.1,-60.9,-95
00:38:59.1,-52.37,-92
00:38:59.2,-50.94,-92
00:38:59.2,-48.41,-92
00:38:59.2,-41.76,-92
00:38:59.2,-29.48,-91
00:38:59.3,-15.19,-91
00:38:59.3,-0.91,-93
00:38:59.3,2.42,-91
00:38:59.3,4.22,-91
00:38:59.3,4.53,-91
00:38:59.3,4.68,-89
00:38:59.4,5.48,-89
00:38:59.4,7.31,-90
00:38:59.4,9.31,-91
00:38:59.4,14.53,-89
00:38:59.5,22.59,-91
00:38:59.5,20.02,-91
00:38:59.5,50.55,-91
00:38:59.5,159.02,-92
00:38:59.6,189.39,-93
00:38:59.6,49.38,-93
00:38:59.6,-74.62,-94
00:38:59.6,-69.39,-94
00:38:59.6,-60.87,-92
00:38:59.6,-49.72,-92
00:38:59.7,-39.18,-91
00:38:59.7,-32.79,-91
00:38:59.7,-33.47,-92
00:38:59.7,-37.14,-94
00:38:59.7,-39.23,-99
00:38:59.8,-38.36,-107
00:38:59.8,-34.37,-115
00:38:59.8,-20.39,-123
00:38:59.8,3.73,-128
00:38:59.9,13.73,-133
00:38:59.9,15.18,-137
00:38:59.9,20.36,-137
00:38:59.9,23.12,-138
00:38:59.9,20.9,-137
00:38:59.9,18.17,-136
00:39:00,18.9,-135
00:39:00,18.61,-134
00:39:00,17.93,-132
00:39:00,17.46,-128
00:39:00,17.35,-127
00:39:00.1,16.71,-126
00:39:00.1,15.13,-127
00:39:00.1,12.44,-126
00:39:00.1,9.5,-124
00:39:00.1,5.78,-124
00:39:00.1,3.28,-120
00:39:00.2,5.2,-118
00:39:00.2,6.62,-115
00:39:00.2,6.07,-112
00:39:00.2,0.95,-110
00:39:00.3,39.52,-109
00:39:00.3,169.72,-108
00:39:00.3,174.64,-109
00:39:00.3,42.06,-110
00:39:00.3,-96.96,-109
00:39:00.3,-98.87,-107
00:39:00.4,-94.17,-104
00:39:00.4,-87.58,-102
00:39:00.4,-76.54,-102
00:39:00.4,-66.88,-103
00:39:00.5,-61.43,-103
00:39:00.5,-63.88,-103
00:39:00.6,-59.99,-105
00:39:00.6,-49.12,-109
00:39:00.6,-33.28,-113
00:39:00.6,-9.75,-118
00:39:00.6,17.15,-125
00:39:00.6,32.53,-131
00:39:00.6,34.26,-134
00:39:00.6,35.07,-138
00:39:00.7,38.22,-139
00:39:00.7,40.54,-137
00:39:00.7,39.56,-133
00:39:00.7,41.66,-131
00:39:00.8,42.48,-130
00:39:00.8,40.53,-131
00:39:00.8,37.7,-128
00:39:00.8,36.67,-127
00:39:00.8,38.73,-123
00:39:00.8,38.13,-121
00:39:00.8,35.49,-122
00:39:00.9,29.61,-121
00:39:00.9,20.09,-119
00:39:00.9,12.37,-117
00:39:00.9,9.85,-115
00:39:01,9.92,-111
00:39:01,4.9,-109
00:39:01,27.87,-106
00:39:01,156.25,-105
00:39:01,204.45,-106
00:39:01,13.25,-106
00:39:01.1,-100.31,-107
00:39:01.1,-87.08,-104
00:39:01.1,-72.49,-103
00:39:01.1,-54.41,-104
00:39:01.1,-46.27,-103
00:39:01.2,-43.69,-103
00:39:01.2,-41.05,-102
00:39:01.2,-40.19,-102
00:39:01.2,-37.43,-102
00:39:01.3,-27.02,-104
00:39:01.3,-8.81,-109
00:39:01.3,4.48,-114
00:39:01.3,8.18,-120
00:39:01.3,12.17,-124
00:39:01.3,17.33,-129
00:39:01.4,20.65,-134
00:39:01.4,22.17,-134
00:39:01.4,24.37,-131
00:39:01.4,21.99,-128
00:39:01.4,15.54,-126
00:39:01.5,4.64,-126
00:39:01.5,-4.98,-124
00:39:01.5,-12.33,-123
00:39:01.5,-11.57,-123
00:39:01.6,-4.64,-121
00:39:01.6,1.94,-117
00:39:01.6,-3.98,-115
00:39:01.6,20.98,-115
00:39:01.6,145.77,-112
00:39:01.7,213.85,-112
00:39:01.7,51.93,-111
00:39:01.7,-70.81,-109
00:39:01.7,-70.99,-107
00:39:01.7,-70.51,-104
00:39:01.8,-70.33,-104
00:39:01.8,-67.56,-103
00:39:01.8,-62.78,-103
00:39:01.8,-57.43,-101
00:39:01.8,-48.77,-101
00:39:01.9,-40.82,-99
00:39:01.9,-38.61,-97
00:39:01.9,-37.9,-100
00:39:01.9,-34.87,-105
00:39:01.9,-27.48,-111
00:39:01.9,-8.66,-117
00:39:02,13.72,-121
00:39:02,22.89,-125
00:39:02,23.58,-125
00:39:02,21.71,-123
00:39:02.1,18.45,-121
00:39:02.1,14.15,-120
00:39:02.1,11.8,-119
00:39:02.1,10.65,-119
00:39:02.1,9.74,-117
00:39:02.1,9.21,-115
00:39:02.2,8.37,-114
00:39:02.2,7.76,-111
00:39:02.2,8.78,-109
00:39:02.2,8.33,-108
00:39:02.2,25.4,-107
00:39:02.3,136.63,-106
00:39:02.3,199.65,-105
00:39:02.3,36.57,-103
00:39:02.3,-81.15,-101
00:39:02.3,-91.21,-97
00:39:02.4,-89.75,-96
00:39:02.4,-82.73,-96
00:39:02.4,-68.98,-95
00:39:02.4,-47.99,-95
00:39:02.5,-31.12,-96
00:39:02.5,-28.21,-98
00:39:02.5,-29.6,-98
00:39:02.5,-25.47,-101
00:39:02.6,-15.9,-106
00:39:02.6,-1.37,-112
00:39:02.6,19.67,-116
00:39:02.6,33.88,-118
00:39:02.6,38.74,-122
00:39:02.6,37.8,-127
00:39:02.7,40.21,-128
00:39:02.7,41.67,-127
00:39:02.7,41.78,-125
00:39:02.7,40.78,-123
00:39:02.7,38.71,-120
00:39:02.7,32.69,-117
00:39:02.8,23.71,-116
00:39:02.8,22.14,-116
00:39:02.8,22.93,-116
00:39:02.8,16.26,-114
00:39:02.9,20.13,-112
00:39:02.9,84.03,-110
00:39:02.9,185.24,-106
00:39:02.9,60.36,-105
00:39:03,-84.22,-107
00:39:03,-85.89,-106
00:39:03,-83.32,-104
00:39:03,-78.79,-101
00:39:03,-71.82,-100
00:39:03,-62.22,-100
00:39:03,-42.29,-101
00:39:03.1,-14.66,-102
00:39:03.1,3.72,-100
00:39:03.1,27.07,-102
00:39:03.1,37.57,-105
00:39:03.1,30.13,-109
00:39:03.2,32.38,-112
00:39:03.2,43.81,-117
00:39:03.2,50.07,-121
00:39:03.3,42.28,-124
00:39:03.3,22.7,-125
00:39:03.3,19.33,-123
00:39:03.3,21.73,-120
00:39:03.3,29.14,-117
00:39:03.4,30.68,-115
00:39:03.4,25.49,-115
00:39:03.4,19.48,-117
00:39:03.4,19.23,-115
00:39:03.4,15.62,-114
00:39:03.4,5.37,-113
00:39:03.4,-4.88,-110
00:39:03.5,-3.72,-108
00:39:03.5,-1.72,-107
00:39:03.5,-8.74,-107
00:39:03.6,-20.33,-106
00:39:03.6,-26.39,-107
00:39:03.6,-33.91,-105
00:39:03.6,-3.97,-103
00:39:03.6,125.6,-101
00:39:03.6,193.09,-99
00:39:03.6,18.7,-97
00:39:03.7,-120.41,-98
00:39:03.7,-117.21,-96
00:39:03.7,-107.07,-96
00:39:03.8,-86.86,-96
00:39:03.8,-70.3,-96
00:39:03.8,-62.34,-95
00:39:03.8,-62.14,-95
00:39:03.8,-61.7,-94
00:39:03.8,-60.3,-98
00:39:03.8,-54.71,-101
00:39:03.9,-41.87,-107
00:39:03.9,-20.96,-114
00:39:03.9,6.08,-121
00:39:03.9,21.51,-126
00:39:04,24.65,-131
00:39:04,29.35,-134
00:39:04,31.15,-133
00:39:04,30.69,-133
00:39:04,29.55,-131
00:39:04,28.79,-129
00:39:04.1,25.85,-127
00:39:04.1,20.85,-127
00:39:04.1,25.08,-125
00:39:04.1,-105.57,-123
00:39:04.1,-260.55,-120
00:39:04.2,-244.95,-118
00:39:04.2,-84.22,-116
00:39:04.2,38.68,-116
00:39:04.2,204.47,-112
00:39:04.2,262.68,-109
00:39:04.3,244.66,-106
00:39:04.3,225.99,-105
00:39:04.3,205.78,-106
00:39:04.3,187.62,-105
00:39:04.4,172.81,-103
00:39:04.4,156.44,-101
00:39:04.4,128.17,-102
00:39:04.4,78.95,-103
00:39:04.4,21.99,-103
00:39:04.4,-34.39,-102
00:39:04.5,-86.92,-101
00:39:04.5,-126.53,-101
00:39:04.5,-148.45,-101
00:39:04.5,-154.87,-100
00:39:04.6,-143.89,-98
00:39:04.6,-125.77,-97
00:39:04.6,-108.91,-94
00:39:04.6,-96.28,-94
00:39:04.6,-85.48,-94
00:39:04.7,-76.92,-94
00:39:04.7,-69.18,-94
00:39:04.7,-55.77,-93
00:39:04.7,-36.86,-94
00:39:04.7,-29.78,-93
00:39:04.7,-30.5,-95
00:39:04.8,-29.11,-93
00:39:04.8,-23.83,-93
00:39:04.8,-14.57,-93
00:39:04.8,-6.67,-93
00:39:04.9,1.24,-93
00:39:04.9,11.5,-93
00:39:04.9,14.89,-92
00:39:04.9,11.52,-92
00:39:04.9,5.86,-89
00:39:04.9,6.94,-89
00:39:05,11.14,-88
00:39:05,17.3,-89
00:39:05,25.89,-89
00:39:05,31.16,-88
00:39:05.1,31.6,-87
00:39:05.1,33.2,-87
00:39:05.1,35.19,-87
00:39:05.1,36.53,-86
00:39:05.1,37.34,-86
00:39:05.2,39.56,-88
00:39:05.2,39.71,-90
00:39:05.2,38.74,-90
00:39:05.2,37.49,-91
00:39:05.2,36.79,-90
00:39:05.3,36.33,-92
00:39:05.3,36.02,-91
00:39:05.3,33.71,-90
00:39:05.3,54.59,-90
00:39:05.3,159.97,-89
00:39:05.3,173.77,-89
00:39:05.4,38.05,-88
00:39:05.4,-76.94,-88
00:39:05.4,-77.92,-87
00:39:05.4,-73.91,-88
00:39:05.4,-69.68,-89
00:39:05.5,-68.41,-89
00:39:05.5,-69.38,-90
00:39:05.5,-64.45,-91
00:39:05.5,-54.37,-98
00:39:05.5,-46.44,-104
00:39:05.6,-41.54,-111
00:39:05.6,-28.85,-117
00:39:05.6,-10.99,-122
00:39:05.6,4.58,-127
00:39:05.7,11.81,-131
00:39:05.7,21.3,-136
00:39:05.7,25.96,-139
00:39:05.7,27.02,-141
00:39:05.7,25.48,-140
00:39:05.7,27.41,-137
00:39:05.8,29.73,-134
00:39:05.8,34.25,-132
00:39:05.8,-87.6,-130
00:39:05.8,-264.04,-131
00:39:05.9,-251.67,-130
00:39:05.9,-112.61,-128
00:39:05.9,69.52,-125
00:39:05.9,234.39,-121
00:39:05.9,269.96,-120
00:39:05.9,247.08,-118
00:39:06,224.33,-116
00:39:06,206.79,-113
00:39:06,194.79,-111
00:39:06,183.76,-111
00:39:06.1,164.78,-110
00:39:06.1,137.69,-108
00:39:06.1,95.35,-106
00:39:06.1,40.05,-107
00:39:06.1,-17.03,-107
00:39:06.2,-72.55,-107
00:39:06.2,-113.61,-108
00:39:06.2,-140.57,-107
00:39:06.2,-146.36,-103
00:39:06.2,-140.39,-104
00:39:06.3,-129.39,-102
00:39:06.3,-115.48,-102
00:39:06.3,-100.46,-101
00:39:06.3,-83.72,-99
00:39:06.3,-67.76,-97
00:39:06.3,-57.48,-95
00:39:06.4,-50.21,-95
00:39:06.4,-40.29,-96
00:39:06.4,-30.96,-96
00:39:06.4,-23.7,-97
00:39:06.5,-21.59,-97
00:39:06.5,-20.01,-96
00:39:06.5,-12.91,-97
00:39:06.5,-3.59,-98
00:39:06.5,4.46,-99
00:39:06.6,7.1,-99
00:39:06.6,8.89,-98
00:39:06.6,9.32,-98
00:39:06.6,10.43,-96
00:39:06.6,11.77,-96
00:39:06.6,10.05,-95
00:39:06.7,34.04,-96
00:39:06.7,140.03,-95
00:39:06.7,178.6,-93
00:39:06.7,39.19,-93
00:39:06.7,-72.44,-92
00:39:06.8,-68.34,-91
00:39:06.8,-63.57,-94
00:39:06.8,-58.67,-95
00:39:06.8,-53.83,-97
00:39:06.9,-52.92,-97
00:39:06.9,-52.21,-99
00:39:06.9,-47.56,-102
00:39:06.9,-40.35,-106
00:39:06.9,-35.33,-111
00:39:06.9,-23.45,-116
00:39:07,-2.4,-122
00:39:07,19.86,-128
00:39:07,34.16,-131
00:39:07,47.76,-135
00:39:07.1,57.32,-137
00:39:07.1,59.6,-135
00:39:07.1,57.03,-134
00:39:07.1,52.43,-132
00:39:07.1,47.09,-130
00:39:07.1,39.04,-129
00:39:07.2,22.6,-129
00:39:07.2,14.61,-129
00:39:07.2,11.26,-127
00:39:07.2,9.2,-125
00:39:07.3,6.67,-123
00:39:07.3,2.83,-122
00:39:07.3,-5,-120
00:39:07.3,-20.4,-119
00:39:07.4,65.09,-118
00:39:07.4,181.39,-119
00:39:07.4,106.01,-118
00:39:07.4,-80.91,-116
00:39:07.4,-110.49,-114
00:39:07.4,-100.54,-111
00:39:07.4,-84.15,-111
00:39:07.5,-65.97,-110
00:39:07.5,-45.96,-110
00:39:07.5,-30.64,-109
00:39:07.5,-21.87,-108
00:39:07.5,-18.9,-107
00:39:07.6,-19.9,-108
00:39:07.6,-16.64,-111
00:39:07.6,-9.44,-116
00:39:07.6,7.77,-121
00:39:07.7,32.85,-127
00:39:07.7,45.16,-129
00:39:07.7,37.73,-130
00:39:07.7,28.53,-131
00:39:07.7,21,-131
00:39:07.8,17.55,-131
00:39:07.8,18.25,-130
00:39:07.8,18.16,-129
00:39:07.8,16.25,-126
00:39:07.8,11.15,-123
00:39:07.8,5.21,-122
00:39:07.9,2.55,-121
00:39:07.9,4.5,-120
00:39:07.9,3.53,-120
00:39:08,2.38,-119
00:39:08,3.18,-117
00:39:08,3.13,-117
00:39:08,1.33,-116
00:39:08,-0.76,-115
00:39:08,-0.84,-114
00:39:08.1,0.38,-111
00:39:08.1,1.37,-108
00:39:08.1,-0.63,-107
00:39:08.1,-3.95,-106
00:39:08.2,-5.94,-104
00:39:08.2,-7.08,-105
00:39:08.2,-6.07,-104
00:39:08.2,35.33,-104
00:39:08.2,187.69,-105
00:39:08.2,134.32,-105
00:39:08.2,-40.2,-103
00:39:08.3,-83.63,-102
00:39:08.3,-69.64,-102
00:39:08.3,-50.53,-103
00:39:08.4,-34.98,-104
00:39:08.4,-24.57,-103
00:39:08.4,-19.13,-103
00:39:08.4,-16.36,-102
00:39:08.4,-15.3,-103
00:39:08.4,-14.12,-107
00:39:08.4,-9.57,-112
00:39:08.5,-1.89,-119
00:39:08.5,8.98,-125
00:39:08.5,15.2,-130
00:39:08.6,17.86,-132
00:39:08.6,14.32,-134
00:39:08.6,8.38,-133
00:39:08.6,3.09,-132
00:39:08.6,-4.6,-131
00:39:08.6,-17.17,-128
00:39:08.6,-18.99,-129
00:39:08.7,-17.19,-129
00:39:08.7,-20.22,-128
00:39:08.7,-8.28,-126
00:39:08.8,-73.38,-125
00:39:08.8,-158.11,-122
00:39:08.8,-204.08,-121
00:39:08.8,-132.09,-121
00:39:08.8,21.87,-120
00:39:08.8,168.97,-117
00:39:08.8,181.22,-115
00:39:08.9,163.28,-112
00:39:08.9,143.85,-111
00:39:08.9,132.33,-111
00:39:08.9,126.9,-109
00:39:08.9,119.33,-109
00:39:09,111.79,-106
00:39:09,98.26,-107
00:39:09,69.8,-107
00:39:09.1,28.73,-108
00:39:09.1,-10.06,-106
00:39:09.1,-45.48,-104
00:39:09.1,-68.69,-103
00:39:09.1,-91.67,-105
00:39:09.1,-97.95,-105
00:39:09.2,-100.3,-105
00:39:09.2,-96.12,-104
00:39:09.2,-89.57,-102
00:39:09.2,-76.06,-99
00:39:09.2,-59.7,-98
00:39:09.3,-48.78,-97
00:39:09.3,-38.02,-98
00:39:09.3,-32.32,-98
00:39:09.3,-25.05,-100
00:39:09.3,-17.74,-99
00:39:09.4,-13.38,-98
00:39:09.4,-11.19,-98
00:39:09.4,-12.78,-98
00:39:09.4,-14.33,-98
00:39:09.4,-19.01,-97
00:39:09.4,-27.96,-97
00:39:09.5,-33.71,-96
00:39:09.5,-37.61,-95
00:39:09.5,-39.72,-94
00:39:09.5,-34.11,-94
00:39:09.5,-17.32,-93
00:39:09.6,9.6,-93
00:39:09.6,20.71,-94
00:39:09.6,22.21,-94
00:39:09.6,20.33,-92
00:39:09.7,30.67,-93
00:39:09.7,119.48,-95
00:39:09.7,213.11,-96
00:39:09.7,110.04,-97
00:39:09.7,-24.97,-98
00:39:09.7,-35.28,-97
00:39:09.8,-28.47,-97
00:39:09.8,-23.04,-96
00:39:09.8,-13.52,-95
00:39:09.8,-4.86,-94
00:39:09.9,7.53,-94
00:39:09.9,21.42,-96
00:39:09.9,33.21,-101
00:39:09.9,39.56,-109
00:39:09.9,41.5,-116
00:39:10,50.32,-123
00:39:10,64.9,-128
00:39:10,72.33,-133
00:39:10,70.38,-136
00:39:10.1,64.51,-137
00:39:10.1,54.64,-136
00:39:10.1,36.88,-136
00:39:10.1,16.56,-135
00:39:10.1,4.43,-134
00:39:10.1,14.71,-133
00:39:10.1,-16.51,-132
00:39:10.2,-256.9,-131
00:39:10.2,-292.56,-128
00:39:10.2,-231.49,-126
00:39:10.2,-15.22,-125
00:39:10.2,182.22,-125
00:39:10.3,245.92,-124
00:39:10.3,226.63,-121
00:39:10.3,202.57,-119
00:39:10.3,178.62,-118
00:39:10.3,161.45,-120
00:39:10.4,148.31,-117
00:39:10.4,138.73,-115
00:39:10.4,133.94,-114
00:39:10.4,116.7,-114
00:39:10.5,68.46,-113
00:39:10.5,1.2,-112
00:39:10.5,-61.7,-110
00:39:10.5,-111.99,-108
00:39:10.5,-136.8,-107
00:39:10.5,-146.19,-105
00:39:10.6,-142.28,-106
00:39:10.6,-138.6,-106
00:39:10.6,-130.86,-105
00:39:10.6,-119.31,-104
00:39:10.7,-101.45,-103
00:39:10.7,-81.33,-105
00:39:10.7,-60.61,-104
00:39:10.7,-50.58,-104
00:39:10.7,-45.13,-102
00:39:10.8,-43.98,-99
00:39:10.8,-41.21,-99
00:39:10.8,-33.89,-99
00:39:10.8,-18,-101
00:39:10.8,-1.01,-101
00:39:10.8,8.15,-102
00:39:10.9,10.53,-101
00:39:10.9,7.98,-100
00:39:10.9,4.65,-99
00:39:10.9,2.66,-99
00:39:11,5.87,-101
00:39:11,10.9,-100
00:39:11,7.6,-99
00:39:11,43.54,-98
00:39:11,166.56,-97
00:39:11,202.27,-97
00:39:11.1,36.77,-95
00:39:11.1,-81.21,-96
00:39:11.1,-68.03,-96
00:39:11.1,-54.17,-97
00:39:11.2,-40.56,-97
00:39:11.2,-35.49,-99
00:39:11.2,-33.06,-100
00:39:11.2,-28.64,-101
00:39:11.2,-24.13,-105
00:39:11.3,-24.54,-111
00:39:11.3,-25.39,-118
00:39:11.3,-19.59,-123
00:39:11.3,-2.94,-130
00:39:11.3,17.44,-134
00:39:11.3,28.09,-139
00:39:11.4,34.45,-142
00:39:11.4,40.37,-143
00:39:11.4,36.42,-143
00:39:11.4,30.92,-140
00:39:11.5,28.93,-139
00:39:11.5,32.27,-139
00:39:11.5,33.01,-137
00:39:11.5,21.98,-136
00:39:11.5,-35.81,-134
00:39:11.5,-134.5,-131
00:39:11.6,-198.08,-128
00:39:11.6,-102.19,-127
00:39:11.6,147.18,-126
00:39:11.6,150.86,-125
00:39:11.7,152.08,-124
00:39:11.7,145.09,-122
00:39:11.7,132.95,-122
00:39:11.7,119.01,-122
00:39:11.7,108.96,-120
00:39:11.7,107.73,-116
00:39:11.8,107.42,-114
00:39:11.8,101.62,-113
00:39:11.8,79.13,-113
00:39:11.8,32.97,-112
00:39:11.9,-9.97,-112
00:39:11.9,-47.66,-111
00:39:11.9,-81.63,-111
00:39:11.9,-94.86,-113
00:39:11.9,-91.55,-114
00:39:11.9,-82.22,-116
00:39:12,-69.71,-117
00:39:12,-60.83,-114
00:39:12,-50.63,-111
00:39:12,-45.29,-110
00:39:12,-41.92,-110
00:39:12.1,-41.49,-111
00:39:12.1,-38.97,-111
00:39:12.1,-34.15,-108
00:39:12.1,-27.18,-107
00:39:12.2,-17.96,-105
00:39:12.2,-12.65,-104
00:39:12.2,-4.89,-104
00:39:12.2,2.41,-105
00:39:12.2,8.39,-103
00:39:12.2,9.25,-102
00:39:12.3,9.54,-103
00:39:12.3,9.09,-103
00:39:12.3,8.31,-102
00:39:12.3,6.5,-101
00:39:12.4,3.34,-99
00:39:12.4,2.45,-99
00:39:12.4,3.27,-97
00:39:12.4,3.19,-99
00:39:12.4,2.46,-98
00:39:12.4,3.28,-98
00:39:12.5,3.69,-98
00:39:12.5,4.63,-99
00:39:12.5,5.43,-99
00:39:12.5,7.5,-99
00:39:12.6,11.99,-99
00:39:12.6,16.3,-100
00:39:12.6,19.41,-100
00:39:12.6,20.1,-99
00:39:12.6,19.73,-99
00:39:12.6,19.26,-97
00:39:12.7,19.44,-96
00:39:12.7,18.52,-97
00:39:12.7,14.97,-98
00:39:12.7,50.42,-99
00:39:12.7,169.56,-100
00:39:12.8,168.11,-101
00:39:12.8,66.13,-100
00:39:12.8,-69.36,-99
00:39:12.8,-79.31,-98
00:39:12.9,-69.22,-99
00:39:12.9,-59.71,-100
00:39:12.9,-50.1,-100
00:39:12.9,-42.7,-102
00:39:12.9,-44.02,-101
00:39:12.9,-45.26,-104
00:39:13,-48.31,-109
00:39:13,-45.02,-118
00:39:13,-34.09,-124
00:39:13,-14.76,-130
00:39:13.1,-4.89,-135
00:39:13.1,2.6,-138
00:39:13.1,11.53,-140
00:39:13.1,14.79,-140
00:39:13.1,16.33,-140
00:39:13.1,17.75,-140
00:39:13.2,16.8,-138
00:39:13.2,19.62,-137
00:39:13.2,13.09,-136
00:39:13.2,-137.15,-134
00:39:13.3,-253.51,-132
00:39:13.3,-235.44,-131
00:39:13.3,-52.08,-131
00:39:13.3,135.18,-131
00:39:13.3,262.53,-130
00:39:13.4,273.22,-127
00:39:13.4,255.07,-123
00:39:13.4,227.22,-122
00:39:13.4,213.83,-121
00:39:13.4,203.08,-120
00:39:13.4,188.38,-117
00:39:13.5,171.85,-115
00:39:13.5,147.46,-114
00:39:13.5,101.61,-115
00:39:13.5,37.08,-115
00:39:13.6,-21.03,-114
00:39:13.6,-78.42,-112
00:39:13.6,-119.75,-109
00:39:13.6,-142.46,-110
00:39:13.6,-145.89,-111
00:39:13.7,-139.66,-111
00:39:13.7,-133.97,-108
00:39:13.7,-129.79,-106
00:39:13.7,-126.01,-106
00:39:13.7,-117.2,-106
00:39:13.8,-103.9,-105
00:39:13.8,-85.61,-103
00:39:13.8,-66.64,-101
00:39:13.8,-57.5,-103
00:39:13.8,-51.6,-103
00:39:13.8,-41.96,-104
00:39:13.9,-31.75,-104
00:39:13.9,-17.06,-103
00:39:13.9,-2.14,-103
00:39:13.9,6.85,-103
00:39:13.9,13.07,-103
00:39:14,15.24,-102
00:39:14,15.57,-102
00:39:14,18.58,-103
00:39:14,22.18,-103
00:39:14,26.37,-104
00:39:14.1,28.49,-101
00:39:14.1,29.5,-100
00:39:14.1,27.99,-99
00:39:14.1,24.73,-99
00:39:14.2,21.68,-99
00:39:14.2,20.58,-99
00:39:14.2,15.92,-101
00:39:14.2,60.67,-102
00:39:14.2,183.95,-102
00:39:14.3,177.49,-102
00:39:14.3,58.52,-101
00:39:14.3,-87.34,-99
00:39:14.3,-83.26,-98
00:39:14.3,-72.21,-99
00:39:14.3,-56.41,-99
00:39:14.4,-43.74,-101
00:39:14.4,-38.62,-102
00:39:14.4,-36.13,-104
00:39:14.4,-32.54,-107
00:39:14.4,-27.41,-113
00:39:14.5,-23.79,-120
00:39:14.5,-12.85,-127
00:39:14.5,8.96,-134
00:39:14.5,24.45,-140
00:39:14.5,35.27,-144
00:39:14.6,43.41,-147
00:39:14.6,49.69,-149
00:39:14.6,49.86,-147
00:39:14.6,47.38,-146
00:39:14.6,42.69,-145
00:39:14.7,41,-144
00:39:14.7,39.07,-141
00:39:14.7,29.51,-140
00:39:14.7,-10.06,-138
00:39:14.7,-96.83,-136
00:39:14.8,-175.7,-134
00:39:14.8,-207.39,-134
00:39:14.8,-30.49,-133
00:39:14.8,169.2,-132
00:39:14.9,125.11,-128
00:39:14.9,125.02,-127
00:39:14.9,119.95,-126
00:39:14.9,110.14,-126
00:39:14.9,95.77,-125
00:39:14.9,88.55,-122
00:39:15,89.39,-119
00:39:15,90.04,-117
00:39:15,82.73,-118
00:39:15,59.34,-117
00:39:15,17.63,-116
00:39:15.1,-26.1,-116
00:39:15.1,-60.41,-115
00:39:15.1,-84.38,-115
00:39:15.1,-92.48,-116
00:39:15.1,-83.63,-118
00:39:15.1,-71.86,-118
00:39:15.2,-59.8,-117
00:39:15.2,-50.2,-116
00:39:15.2,-47.61,-115
00:39:15.2,-46.39,-113
00:39:15.3,-44.02,-112
00:39:15.3,-38.35,-112
00:39:15.3,-28.94,-112
00:39:15.3,-19.57,-111
00:39:15.4,-10.17,-110
00:39:15.4,-4.6,-109
00:39:15.4,-5.35,-108
00:39:15.4,-4.84,-107
00:39:15.4,-1.27,-106
00:39:15.5,4.79,-106
00:39:15.5,10.91,-105
00:39:15.5,14.11,-105
00:39:15.5,17.27,-105
00:39:15.5,17.15,-105
00:39:15.5,16.8,-102
00:39:15.6,16.34,-101
00:39:15.6,14.63,-100
00:39:15.6,12.15,-101
00:39:15.6,53.93,-103
00:39:15.7,184.21,-103
00:39:15.7,128.99,-102
00:39:15.7,-50.24,-101
00:39:15.7,-100.33,-100
00:39:15.7,-91.48,-101
00:39:15.7,-79.74,-103
00:39:15.8,-63.81,-103
00:39:15.8,-45.97,-101
00:39:15.8,-42.43,-101
00:39:15.8,-41.69,-99
00:39:15.8,-41.44,-103
00:39:15.8,-41.88,-110
00:39:15.9,-39.93,-116
00:39:15.9,-29.22,-125
00:39:15.9,-0.7,-129
00:39:15.9,19.97,-132
00:39:16,25.17,-137
00:39:16,29.54,-140
00:39:16,31.76,-143
00:39:16,31.44,-145
00:39:16.1,30.37,-144
00:39:16.1,29.38,-142
00:39:16.1,28.14,-138
00:39:16.1,33.59,-136
00:39:16.1,-30.79,-137
00:39:16.1,-251.92,-136
00:39:16.1,-258.7,-135
00:39:16.2,-229.71,-134
00:39:16.2,-11.11,-132
00:39:16.2,125.95,-128
00:39:16.2,258.93,-126
00:39:16.3,290.76,-125
00:39:16.3,280.49,-123
00:39:16.3,267.24,-120
00:39:16.3,254.47,-117
00:39:16.3,236.34,-118
00:39:16.3,214.03,-118
00:39:16.4,186.39,-116
00:39:16.4,140.95,-114
00:39:16.4,79.54,-113
00:39:16.4,14.34,-112
00:39:16.5,-52.91,-112
00:39:16.5,-111.32,-110
00:39:16.5,-148.48,-110
00:39:16.5,-172.71,-107
00:39:16.6,-175.99,-106
00:39:16.6,-165.03,-106
00:39:16.6,-147.09,-106
00:39:16.6,-122.99,-103
00:39:16.6,-109.37,-101
00:39:16.6,-99.61,-101
00:39:16.7,-91.75,-103
00:39:16.7,-84.29,-102
00:39:16.7,-74.42,-101
00:39:16.7,-57.72,-100
00:39:16.8,-38.45,-98
00:39:16.8,-25.1,-98
00:39:16.8,-14.26,-97
00:39:16.8,-2.62,-97
00:39:16.8,3.56,-99
00:39:16.8,3.81,-98
00:39:16.9,6.45,-97
00:39:16.9,7.83,-97
00:39:16.9,7.54,-97
00:39:16.9,7.4,-97
00:39:16.9,6.64,-98
00:39:17,9.48,-98
00:39:17,60.55,-97
00:39:17,168.23,-97
00:39:17,113.7,-98
00:39:17,-37.31,-98
00:39:17.1,-77.48,-99
00:39:17.1,-72.92,-100
00:39:17.1,-66.21,-99
00:39:17.1,-55.05,-99
00:39:17.1,-36.88,-98
00:39:17.1,-21.36,-97
00:39:17.2,-15.56,-100
00:39:17.2,-16.37,-103
00:39:17.2,-18.57,-109
00:39:17.2,-19.49,-115
00:39:17.3,-11.32,-124
00:39:17.3,8.53,-130
00:39:17.3,24.61,-135
00:39:17.3,36.77,-139
00:39:17.3,49.4,-143
00:39:17.4,53.74,-143
00:39:17.4,55.44,-142
00:39:17.4,51.17,-140
00:39:17.4,46.54,-139
00:39:17.4,36.23,-138
00:39:17.5,24.06,-137
00:39:17.5,35.63,-136
00:39:17.5,-45.17,-133
00:39:17.5,-267.51,-132
00:39:17.6,-226.76,-131
00:39:17.6,55.86,-131
00:39:17.6,164.27,-131
00:39:17.6,152.96,-129
00:39:17.6,144.24,-127
00:39:17.7,133.78,-123
00:39:17.7,125.19,-121
00:39:17.7,117.32,-120
00:39:17.7,114.81,-118
00:39:17.7,113.08,-116
00:39:17.8,107.65,-113
00:39:17.8,90.98,-113
00:39:17.8,56.19,-114
00:39:17.8,12.5,-114
00:39:17.8,-33.17,-113
00:39:17.8,-63.41,-113
00:39:17.9,-77.39,-113
00:39:17.9,-83.99,-113
00:39:17.9,-85.14,-114
00:39:17.9,-83.04,-114
00:39:17.9,-78.44,-112
00:39:17.9,-70.93,-109
00:39:18,-62.21,-106
00:39:18,-52.7,-105
00:39:18,-44.4,-105
00:39:18,-38.27,-105
00:39:18.1,-33.21,-105
00:39:18.1,-25.92,-104
00:39:18.1,-22.09,-103
00:39:18.1,-18.18,-102
00:39:18.1,-14.36,-101
00:39:18.2,-10.98,-101
00:39:18.2,-7,-102
00:39:18.2,-4.26,-103
00:39:18.2,-2.88,-103
00:39:18.3,-2.21,-103
00:39:18.3,1.44,-102
00:39:18.3,6.45,-100
00:39:18.3,13.82,-99
00:39:18.3,21.58,-98
00:39:18.3,27.52,-98
00:39:18.3,27.78,-98
00:39:18.4,24.25,-96
00:39:18.4,18.32,-97
00:39:18.4,13.64,-98
00:39:18.5,10.86,-98
00:39:18.5,6.57,-99
00:39:18.5,16.97,-98
00:39:18.5,114.87,-96
00:39:18.5,217.16,-97
00:39:18.5,77.53,-97
00:39:18.6,-86.95,-97
00:39:18.6,-98.34,-97
00:39:18.6,-87.3,-97
00:39:18.6,-74.94,-96
00:39:18.7,-64.54,-95
00:39:18.7,-56.03,-94
00:39:18.7,-47.06,-94
00:39:18.7,-36.24,-96
00:39:18.7,-31.07,-104
00:39:18.7,-33.7,-114
00:39:18.7,-31.17,-123
00:39:18.8,-18.79,-130
00:39:18.8,10.34,-135
00:39:18.8,30.34,-139
00:39:18.8,38.92,-142
00:39:18.8,46.95,-145
00:39:18.9,45.81,-148
00:39:18.9,34.76,-149
00:39:18.9,19.23,-150
00:39:18.9,12.93,-149
00:39:18.9,23.19,-146
00:39:19,-4.58,-144
00:39:19,-225.78,-142
00:39:19,-265.27,-141
00:39:19,-244.28,-140
00:39:19,-63.64,-138
00:39:19.1,171.5,-137
00:39:19.1,274.78,-135
00:39:19.1,280.49,-131
00:39:19.1,261.65,-129
00:39:19.2,226.97,-127
00:39:19.2,207.63,-125
00:39:19.2,195.44,-122
00:39:19.2,181.27,-119
00:39:19.3,161.51,-119
00:39:19.3,132.09,-119
00:39:19.3,85.66,-117
00:39:19.3,22.61,-114
00:39:19.3,-39.33,-112
00:39:19.3,-97.74,-113
00:39:19.4,-141.49,-113
00:39:19.4,-163.75,-112
00:39:19.4,-166.2,-110
00:39:19.4,-160.6,-106
00:39:19.4,-148.46,-105
00:39:19.4,-131.7,-106
00:39:19.5,-113.07,-106
00:39:19.5,-98.63,-103
00:39:19.5,-91.36,-103
00:39:19.5,-74.76,-101
00:39:19.6,-43.1,-99
00:39:19.6,-16.81,-98
00:39:19.6,-16.96,-98
00:39:19.6,-21.38,-99
00:39:19.6,-21.2,-100
00:39:19.6,-16.88,-99
00:39:19.7,-8.73,-98
00:39:19.7,6.11,-98
00:39:19.7,16.1,-100
00:39:19.7,22.29,-99
00:39:19.8,20.47,-96
00:39:19.8,19.84,-95
00:39:19.8,21.86,-96
00:39:19.8,27.79,-96
00:39:19.8,31.76,-95
00:39:19.8,31.87,-95
00:39:19.9,30.29,-95
00:39:19.9,27.6,-95
00:39:19.9,24.39,-96
00:39:20,24.23,-96
00:39:20,25.06,-97
00:39:20,24.76,-96
00:39:20,20.38,-98
00:39:20,37.92,-99
00:39:20,127.47,-99
00:39:20,175.06,-98
00:39:20.1,37.31,-98
00:39:20.1,-77.17,-95
00:39:20.1,-80.71,-95
00:39:20.1,-73.58,-94
00:39:20.2,-63.17,-94
00:39:20.2,-55.06,-93
00:39:20.2,-46.8,-92
00:39:20.2,-40.47,-94
00:39:20.3,-36.37,-98
00:39:20.3,-33.25,-105
00:39:20.3,-30.47,-113
00:39:20.3,-23.14,-121
00:39:20.3,-6.47,-127
00:39:20.3,9.67,-131
00:39:20.3,19.66,-135
00:39:20.4,30.57,-138
00:39:20.4,42.22,-141
00:39:20.4,42.72,-145
00:39:20.5,37.93,-145
00:39:20.5,32.31,-143
00:39:20.5,29.11,-141
00:39:20.5,24.07,-139
00:39:20.5,20.13,-138
00:39:20.5,-26.37,-138
00:39:20.5,-197.56,-138
00:39:20.6,-248.18,-139
00:39:20.6,-9.69,-137
00:39:20.6,137.06,-134
00:39:20.7,167.08,-131
00:39:20.7,159.04,-129
00:39:20.7,148.55,-129
00:39:20.7,132.59,-126
00:39:20.7,114.94,-124
00:39:20.7,102.2,-121
00:39:20.7,96.75,-119
00:39:20.8,94.69,-118
00:39:20.8,85.38,-118
00:39:20.8,62.68,-117
00:39:20.9,22.96,-116
00:39:20.9,-19.08,-115
00:39:20.9,-53.21,-113
00:39:20.9,-75.7,-111
00:39:20.9,-85.72,-111
00:39:20.9,-80.17,-112
00:39:21,-74.09,-110
00:39:21,-67.09,-109
00:39:21,-62.06,-107
00:39:21,-59.46,-104
00:39:21.1,-55.34,-102
00:39:21.1,-48.75,-104
00:39:21.1,-39.91,-103
00:39:21.1,-32.35,-104
00:39:21.1,-28.14,-103
00:39:21.1,-25.58,-102
00:39:21.1,-23.18,-99
00:39:21.2,-19.9,-98
00:39:21.2,-14.88,-98
00:39:21.2,-9.18,-97
00:39:21.2,-4.47,-97
00:39:21.3,-1.27,-95
00:39:21.3,0.65,-96
00:39:21.3,3.13,-96
00:39:21.3,3.08,-96
00:39:21.3,4.19,-96
00:39:21.3,6.12,-98
00:39:21.4,8.01,-96
00:39:21.4,11.05,-95
00:39:21.4,16.51,-96
00:39:21.4,21.1,-97
00:39:21.4,22.02,-97
00:39:21.5,19.82,-97
00:39:21.5,19.52,-98
00:39:21.5,19.08,-98
00:39:21.6,18.81,-100
00:39:21.6,19.72,-100
00:39:21.6,21.19,-99
00:39:21.6,59.2,-98
00:39:21.6,181.1,-99
00:39:21.6,110.44,-96
00:39:21.7,-58.83,-97
00:39:21.7,-96.87,-96
00:39:21.7,-84.59,-99
00:39:21.7,-74.78,-99
00:39:21.7,-66.81,-98
00:39:21.7,-59.3,-98
00:39:21.8,-51.69,-100
00:39:21.8,-42.72,-103
00:39:21.8,-34.56,-108
00:39:21.8,-35.4,-115
00:39:21.8,-32.43,-120
00:39:21.9,-20.34,-130
00:39:21.9,-0.34,-137
00:39:21.9,12.21,-141
00:39:21.9,17.38,-147
00:39:21.9,26.38,-152
00:39:22,35.6,-154
00:39:22,37.05,-155
00:39:22,37.03,-151
00:39:22,36.12,-149
00:39:22.1,32.99,-148
00:39:22.1,34.86,-148
00:39:22.1,3.35,-148
00:39:22.1,-226.51,-145
00:39:22.1,-265.36,-144
00:39:22.1,-244.34,-142
00:39:22.2,-6.23,-142
00:39:22.2,252.47,-141
00:39:22.2,306.97,-140
00:39:22.2,288.83,-136
00:39:22.3,267.11,-131
00:39:22.3,252.16,-131
00:39:22.3,239.61,-128
00:39:22.3,222.69,-127
00:39:22.3,202.56,-123
00:39:22.4,182.42,-121
00:39:22.4,160.86,-121
00:39:22.4,103.02,-121
00:39:22.4,28.43,-120
00:39:22.4,-46.05,-118
00:39:22.5,-104.94,-117
00:39:22.5,-145.08,-118
00:39:22.5,-166.6,-119
00:39:22.5,-168.4,-117
00:39:22.5,-161.95,-113
00:39:22.5,-150.85,-110
00:39:22.6,-139.76,-109
00:39:22.6,-127.87,-110
00:39:22.6,-113.75,-108
00:39:22.6,-102.48,-105
00:39:22.7,-88.67,-104
00:39:22.7,-75.51,-103
00:39:22.7,-65.19,-104
00:39:22.7,-51.86,-104
00:39:22.7,-38.7,-103
00:39:22.7,-23.62,-102
00:39:22.8,-14.98,-101
00:39:22.8,-11.95,-101
00:39:22.8,-8.64,-102
00:39:22.8,-8.35,-103
00:39:22.9,-5.66,-103
00:39:22.9,-0.21,-101
00:39:22.9,4.19,-101
00:39:22.9,5.06,-99
00:39:22.9,5.4,-98
00:39:22.9,0.75,-98
00:39:23,29.52,-97
00:39:23,151.19,-96
00:39:23,189.07,-96
00:39:23,24,-95
00:39:23.1,-90.4,-94
00:39:23.1,-90.03,-94
00:39:23.1,-83.64,-94
00:39:23.1,-71.1,-95
00:39:23.1,-58.22,-96
00:39:23.1,-47.54,-97
00:39:23.2,-32.63,-98
00:39:23.2,-22,-101
00:39:23.2,-19.46,-108
00:39:23.2,-19.71,-115
00:39:23.3,-16.49,-120
00:39:23.3,-7.2,-125
00:39:23.3,10.57,-131
00:39:23.3,27.7,-137
00:39:23.3,33.57,-141
00:39:23.3,35.5,-146
00:39:23.4,35.29,-148
00:39:23.4,33.02,-148
00:39:23.4,26.36,-144
00:39:23.5,22.65,-141
00:39:23.5,23.75,-141
00:39:23.5,22.74,-142
00:39:23.5,19.96,-143
00:39:23.5,19.6,-140
00:39:23.5,21.46,-136
00:39:23.6,20.34,-134
00:39:23.6,16.91,-132
00:39:23.6,10.66,-130
00:39:23.6,8.82,-129
00:39:23.6,11.75,-128
00:39:23.7,17.62,-128
00:39:23.7,88.79,-125
00:39:23.7,182.67,-121
00:39:23.7,122.83,-118
00:39:23.7,-50.82,-117
00:39:23.7,-90.81,-116
00:39:23.8,-77.66,-116
00:39:23.8,-60.84,-116
00:39:23.8,-46.9,-113
00:39:23.8,-38.84,-111
00:39:23.9,-37.14,-111
00:39:23.9,-37.08,-112
00:39:23.9,-36.75,-112
00:39:23.9,-34.79,-113
00:39:23.9,-29.28,-115
00:39:23.9,-16.19,-117
00:39:24,-1.37,-120
00:39:24,14.51,-125
00:39:24,25.95,-130
00:39:24,29.22,-132
00:39:24,29.11,-135
00:39:24.1,29.07,-135
00:39:24.1,30.58,-132
00:39:24.1,29.84,-129
00:39:24.1,27.49,-126
00:39:24.1,23.99,-126
00:39:24.2,15.88,-127
00:39:24.2,11.55,-127
00:39:24.2,7.32,-126
00:39:24.3,8.12,-125
00:39:24.3,9.16,-123
00:39:24.3,9.11,-121
00:39:24.3,4.46,-119
00:39:24.3,16.28,-117
00:39:24.3,96.65,-117
00:39:24.3,165.09,-116
00:39:24.4,31.29,-115
00:39:24.4,-104.48,-113
00:39:24.4,-103.1,-110
00:39:24.4,-97.35,-109
00:39:24.5,-87.25,-108
00:39:24.5,-68.34,-108
00:39:24.5,-55.96,-108
00:39:24.5,-52.02,-107
00:39:24.5,-52.52,-104
00:39:24.5,-53.06,-103
00:39:24.6,-46.31,-106
00:39:24.6,-28.95,-111
00:39:24.6,-8.97,-117
00:39:24.6,5.59,-122
00:39:24.7,17.53,-127
00:39:24.7,25.67,-131
00:39:24.7,27.06,-131
00:39:24.7,26.61,-131
00:39:24.7,26.42,-131
00:39:24.7,24.29,-131
00:39:24.8,21.97,-131
00:39:24.8,21.98,-130
00:39:24.8,23.3,-128
00:39:24.8,23.78,-127
00:39:24.9,22.34,-125
00:39:24.9,19.71,-123
00:39:24.9,15.93,-121
00:39:24.9,13.01,-120
00:39:24.9,15.09,-118
00:39:25,19.67,-118
00:39:25,22.11,-118
00:39:25,15.47,-115
00:39:25,61.87,-112
00:39:25,190.14,-109
00:39:25,177.9,-108
00:39:25.1,25.63,-108
00:39:25.1,-86.93,-108
00:39:25.1,-78.68,-106
00:39:25.1,-66.16,-104
00:39:25.2,-54.94,-102
00:39:25.2,-50.5,-103
00:39:25.2,-50.76,-105
00:39:25.2,-49.43,-105
00:39:25.2,-47.98,-104
00:39:25.2,-43.82,-104
00:39:25.3,-34.14,-106
00:39:25.3,-23.58,-110
00:39:25.3,-12.67,-116
00:39:25.3,-1.51,-121
00:39:25.4,13.44,-124
00:39:25.4,27.43,-128
00:39:25.4,34.57,-130
00:39:25.4,32.49,-130
00:39:25.4,22.13,-127
00:39:25.4,3.57,-125
00:39:25.5,-7.49,-125
00:39:25.5,-13.62,-124
00:39:25.5,-18.29,-126
00:39:25.5,-21.18,-126
00:39:25.5,-20.66,-123
00:39:25.6,-17.13,-120
00:39:25.6,-13.83,-120
00:39:25.6,-17.72,-119
00:39:25.6,51.22,-117
00:39:25.7,208.57,-117
00:39:25.7,115.6,-115
00:39:25.7,-76.26,-111
00:39:25.7,-97.92,-109
00:39:25.7,-85.87,-109
00:39:25.7,-68.07,-107
00:39:25.8,-51.7,-106
00:39:25.8,-39.29,-106
00:39:25.8,-29.2,-104
00:39:25.8,-25.95,-102
00:39:25.9,-24.51,-100
00:39:25.9,-18.9,-101
00:39:25.9,-1.43,-106
00:39:25.9,20.28,-110
00:39:25.9,30.45,-115
00:39:25.9,40.36,-119
00:39:26,48.19,-121
00:39:26,51,-121
00:39:26,53.78,-122
00:39:26,46.63,-122
00:39:26.1,36.7,-122
00:39:26.1,32.65,-121
00:39:26.1,32.83,-119
00:39:26.1,28.78,-118
00:39:26.1,20.76,-115
00:39:26.2,14.27,-114
00:39:26.2,2.67,-112
00:39:26.2,38.81,-113
00:39:26.2,175.74,-110
00:39:26.2,226.5,-112
00:39:26.2,28.88,-110
00:39:26.3,-115.98,-108
00:39:26.3,-113.18,-105
00:39:26.3,-105.39,-105
00:39:26.4,-94.9,-105
00:39:26.4,-83.83,-104
00:39:26.4,-76.34,-103
00:39:26.4,-65.12,-101
00:39:26.4,-58.11,-99
00:39:26.4,-52.91,-100
00:39:26.5,-44.61,-102
00:39:26.5,-24.71,-105
00:39:26.5,2.42,-109
00:39:26.5,19.13,-111
00:39:26.5,32.52,-115
00:39:26.5,36.88,-116
00:39:26.6,35.89,-114
00:39:26.6,35.55,-114
00:39:26.6,33.03,-114
00:39:26.6,29.83,-113
00:39:26.7,27.49,-111
00:39:26.7,23.02,-111
00:39:26.7,18,-109
00:39:26.7,14.58,-108
00:39:26.7,16.13,-107
00:39:26.7,15.7,-106
00:39:26.8,11.94,-106
00:39:26.8,8.34,-107
00:39:26.8,8.19,-107
00:39:26.8,8.13,-107
00:39:26.8,10.5,-105
00:39:26.9,12.27,-102
00:39:26.9,5.18,-101
00:39:26.9,47.45,-99
00:39:26.9,149.46,-99
00:39:27,153.62,-99
00:39:27,47.57,-99
00:39:27,-68.61,-98
00:39:27,-72.68,-98
00:39:27,-72.29,-97
00:39:27,-69.15,-97
00:39:27.1,-62.13,-96
00:39:27.1,-48.9,-96
00:39:27.1,-33.39,-95
00:39:27.1,-24.87,-95
00:39:27.2,-21.31,-97
00:39:27.2,-20.67,-101
00:39:27.2,-17.93,-106
00:39:27.2,-5.59,-111
00:39:27.2,15.81,-116
00:39:27.2,36.5,-120
00:39:27.3,53.08,-122
00:39:27.3,55.85,-119
00:39:27.3,50.47,-118
00:39:27.3,40.07,-117
00:39:27.4,36.99,-116
00:39:27.4,34.13,-116
00:39:27.4,27.57,-116
00:39:27.4,24.67,-117
00:39:27.5,-10.58,-115
00:39:27.5,-249.79,-113
00:39:27.5,-281.71,-114
00:39:27.5,-153.8,-113
00:39:27.5,-27.3,-114
00:39:27.5,109.9,-110
00:39:27.5,226.07,-107
00:39:27.6,238.05,-107
00:39:27.6,226.46,-106
00:39:27.6,212.56,-106
00:39:27.6,196.76,-104
00:39:27.6,178.92,-101
00:39:27.7,165.44,-101
00:39:27.7,143.6,-102
00:39:27.7,117.23,-101
00:39:27.7,72.3,-99
00:39:27.7,13.22,-98
00:39:27.8,-52.29,-99
00:39:27.8,-103.15,-98
00:39:27.8,-139.85,-97
00:39:27.8,-156.35,-98
00:39:27.9,-171.76,-99
00:39:27.9,-144.22,-97
00:39:27.9,-75.84,-96
00:39:27.9,-81.29,-95
00:39:27.9,-152.28,-93
00:39:27.9,-137.87,-92
00:39:28,-92.51,-92
00:39:28,-57.66,-91
00:39:28,-39.25,-92
00:39:28,-27.45,-91
00:39:28.1,-17.32,-91
00:39:28.1,-6.49,-93
00:39:28.1,8.33,-91
00:39:28.1,19.64,-90
00:39:28.1,25.03,-91
00:39:28.1,24.47,-94
00:39:28.2,23.55,-98
00:39:28.2,21.78,-100
00:39:28.2,20.2,-101
00:39:28.2,18.82,-102
00:39:28.2,18.56,-100
00:39:28.3,19.44,-97
00:39:28.3,20.1,-96
00:39:28.3,22.26,-96
00:39:28.3,24.7,-98
00:39:28.4,24.09,-97
00:39:28.4,22,-97
00:39:28.4,22.33,-98
00:39:28.4,24.67,-99
00:39:28.4,25.12,-97
00:39:28.4,25.63,-98
00:39:28.5,26.22,-98
00:39:28.5,24.77,-97
00:39:28.5,22.08,-97
00:39:28.5,19.24,-96
00:39:28.5,16.42,-96
00:39:28.6,13.85,-94
00:39:28.6,15.1,-94
00:39:28.6,28.11,-94
00:39:28.6,62.86,-96
00:39:28.6,86.28,-95
00:39:28.7,80.76,-95
00:39:28.7,75.79,-96
00:39:28.7,62.49,-97
00:39:28.7,42.07,-97
00:39:28.8,29.62,-96
00:39:28.8,25.23,-97
00:39:28.8,20.91,-95
00:39:28.8,14.11,-96
00:39:28.8,3.27,-94
00:39:28.8,-9.27,-94
00:39:28.9,-22.78,-94
00:39:28.9,-29.6,-94
00:39:28.9,-37.87,-94
00:39:28.9,19.24,-94
00:39:29,144.15,-93
00:39:29,117.96,-92
00:39:29,-40.39,-89
00:39:29,-128.69,-89
00:39:29,-118.99,-91
00:39:29,-105.3,-93
00:39:29.1,-93.72,-94
00:39:29.1,-88.09,-95
00:39:29.1,-82.56,-96
00:39:29.1,-69.17,-98
00:39:29.2,-48.89,-103
00:39:29.2,-43.14,-108
00:39:29.2,-39.1,-113
00:39:29.2,-24.28,-116
00:39:29.2,0.47,-119
00:39:29.2,18.31,-122
00:39:29.3,28.85,-128
00:39:29.3,37.26,-130
00:39:29.3,38.89,-130
00:39:29.3,30.73,-128
00:39:29.3,12.01,-126
00:39:29.4,-2.87,-124
00:39:29.4,-5.02,-122
00:39:29.4,-55.28,-122
00:39:29.4,-242.89,-123
00:39:29.4,-251.56,-122
00:39:29.5,-235.07,-122
00:39:29.5,-22.61,-121
00:39:29.5,234.29,-119
00:39:29.5,256.18,-118
00:39:29.6,244.66,-117
00:39:29.6,227.81,-115
00:39:29.6,206.92,-113
00:39:29.6,187.84,-110
00:39:29.6,166.19,-110
00:39:29.6,136.33,-109
00:39:29.7,108.47,-109
00:39:29.7,80.75,-108
00:39:29.7,47.39,-107
00:39:29.7,-3.61,-106
00:39:29.8,-60.39,-107
00:39:29.8,-108.62,-107
00:39:29.8,-138.71,-106
00:39:29.8,-143.71,-103
00:39:29.8,-138.23,-102
00:39:29.8,-127.06,-101
00:39:29.9,-109.61,-102
00:39:29.9,-94.42,-101
00:39:29.9,-83.79,-99
00:39:29.9,-75.01,-98
00:39:30,-61.15,-98
00:39:30,-44.42,-97
00:39:30,-29.41,-98
00:39:30,-22.25,-99
00:39:30,-16.27,-100
00:39:30,-11.25,-100
00:39:30.1,-1.93,-99
00:39:30.1,10.43,-99
00:39:30.1,20.49,-99
00:39:30.1,23.92,-99
00:39:30.1,23.96,-98
00:39:30.2,22.65,-96
00:39:30.2,23.71,-96
00:39:30.2,26.17,-94
00:39:30.2,29.63,-95
00:39:30.2,33.48,-94
00:39:30.2,34.6,-95
00:39:30.3,34.74,-95
00:39:30.3,31.56,-97
00:39:30.3,26.17,-97
00:39:30.3,25.13,-98
00:39:30.4,23.62,-99
00:39:30.4,21.02,-98
00:39:30.4,19.51,-98
00:39:30.4,18.64,-98
00:39:30.5,18.45,-96
00:39:30.5,16.15,-95
00:39:30.5,12.9,-96
00:39:30.5,5.08,-94
00:39:30.5,45.54,-94
00:39:30.5,167.42,-97
00:39:30.6,180.03,-95
00:39:30.6,53.01,-93
00:39:30.6,-62.38,-94
00:39:30.6,-73.14,-93
00:39:30.7,-69.71,-94
00:39:30.7,-67.34,-94
00:39:30.7,-62.52,-93
00:39:30.7,-54.19,-94
00:39:30.7,-41.04,-97
00:39:30.7,-36.44,-100
00:39:30.8,-36.74,-106
00:39:30.8,-37.19,-112
00:39:30.8,-31.97,-113
00:39:30.8,-16.78,-117
00:39:30.8,4.29,-122
00:39:30.9,20.24,-124
00:39:30.9,32.67,-127
00:39:30.9,40.81,-128
00:39:30.9,42.11,-127
00:39:30.9,38.28,-124
00:39:30.9,29.24,-121
00:39:31,24.51,-121
00:39:31,25.78,-122
00:39:31,-35.75,-122
00:39:31.1,-255.42,-121
00:39:31.1,-261.72,-118
00:39:31.1,-191.33,-116
00:39:31.1,99.06,-115
00:39:31.1,272.21,-115
00:39:31.1,286.23,-114
00:39:31.2,260.11,-112
00:39:31.2,226.23,-110
00:39:31.2,203.47,-109
00:39:31.2,188.02,-110
00:39:31.2,170.58,-110
00:39:31.2,151.02,-109
00:39:31.3,128.46,-108
00:39:31.3,93.67,-107
00:39:31.3,36.52,-108
00:39:31.3,-31.56,-107
00:39:31.4,-86.8,-107
00:39:31.4,-122.44,-106
00:39:31.4,-144.92,-104
00:39:31.4,-151.01,-103
00:39:31.5,-145.81,-103
00:39:31.5,-139.63,-104
00:39:31.5,-125.97,-102
00:39:31.5,-112.89,-100
00:39:31.5,-100.37,-100
00:39:31.5,-86.33,-102
00:39:31.6,-73.32,-102
00:39:31.6,-56.51,-101
00:39:31.6,-42.13,-100
00:39:31.6,-24.33,-100
00:39:31.6,-19.83,-100
00:39:31.6,-19.38,-101
00:39:31.7,-17.4,-103
00:39:31.7,-15.81,-103
00:39:31.7,-13.48,-101
00:39:31.7,-8.56,-100
00:39:31.8,0.47,-100
00:39:31.8,8.86,-99
00:39:31.8,10.7,-98
00:39:31.8,12.13,-101
00:39:31.9,13.55,-102
00:39:31.9,14.04,-101
00:39:31.9,11.52,-102
00:39:31.9,7.88,-102
00:39:31.9,10.01,-100
00:39:31.9,10.78,-100
00:39:32,11.16,-98
00:39:32,45.71,-96
00:39:32,181.48,-97
00:39:32,160.46,-97
00:39:32,9.67,-99
00:39:32.1,-72.79,-100
00:39:32.1,-70.27,-101
00:39:32.1,-66.91,-103
00:39:32.1,-61.36,-100
00:39:32.1,-53.1,-100
00:39:32.2,-46.19,-98
00:39:32.2,-38.83,-100
00:39:32.2,-26.52,-108
00:39:32.2,-21.69,-115
00:39:32.2,-19.21,-121
00:39:32.3,-9.93,-125
00:39:32.3,10.81,-128
00:39:32.3,29.1,-129
00:39:32.3,39.81,-130
00:39:32.3,48.27,-132
00:39:32.4,52.3,-133
00:39:32.4,50.15,-133
00:39:32.4,44.67,-132
00:39:32.4,35.5,-129
00:39:32.4,27.61,-126
00:39:32.5,18.57,-123
00:39:32.5,-13.42,-123
00:39:32.5,-98.57,-124
00:39:32.5,-187.45,-123
00:39:32.5,-149.84,-122
00:39:32.6,27.1,-121
00:39:32.6,159.83,-119
00:39:32.6,145.04,-118
00:39:32.6,140.06,-117
00:39:32.6,134.02,-116
00:39:32.7,130.8,-116
00:39:32.7,129.51,-114
00:39:32.7,127.46,-113
00:39:32.7,123.27,-114
00:39:32.7,114.8,-113
00:39:32.8,91.28,-111
00:39:32.8,50.12,-109
00:39:32.8,7.72,-107
00:39:32.8,-29.63,-108
00:39:32.8,-60.29,-108
00:39:32.9,-88.69,-111
00:39:32.9,-103.83,-112
00:39:32.9,-101.86,-111
00:39:32.9,-101.45,-110
00:39:32.9,-99.27,-110
00:39:33,-94.52,-110
00:39:33,-86.56,-110
00:39:33,-81.25,-109
00:39:33,-73.31,-107
00:39:33.1,-63.48,-105
00:39:33.1,-51.03,-106
00:39:33.1,-41.27,-107
00:39:33.1,-34.29,-106
00:39:33.1,-27.87,-106
00:39:33.1,-22.47,-105
00:39:33.2,-17.53,-103
00:39:33.2,-10.21,-102
00:39:33.2,-2.91,-102
00:39:33.2,0.97,-103
00:39:33.2,1.96,-104
00:39:33.3,1.61,-104
00:39:33.3,1.14,-103
00:39:33.3,1.36,-103
00:39:33.3,1.28,-104
00:39:33.4,-0.58,-105
00:39:33.4,8.45,-104
00:39:33.4,100.48,-102
00:39:33.4,217.04,-102
00:39:33.4,63.24,-103
00:39:33.5,-77.38,-104
00:39:33.5,-72.34,-103
00:39:33.5,-63.28,-103
00:39:33.5,-55.92,-104
00:39:33.5,-51.39,-101
00:39:33.5,-47.14,-100
00:39:33.6,-42.74,-101
00:39:33.6,-30.86,-104
00:39:33.6,-13.45,-110
00:39:33.6,-2.59,-114
00:39:33.6,4.2,-119
00:39:33.6,17.75,-122
00:39:33.7,35.68,-125
00:39:33.7,38.75,-126
00:39:33.7,41.4,-130
00:39:33.7,46.44,-134
00:39:33.8,52.52,-134
00:39:33.8,52.77,-134
00:39:33.8,47.2,-131
00:39:33.8,37.57,-130
00:39:33.8,42.54,-127
00:39:33.8,30.28,-127
00:39:33.9,-158.81,-127
00:39:33.9,-272.2,-126
00:39:33.9,-251.67,-125
00:39:33.9,-80.49,-123
00:39:33.9,115.06,-121
00:39:34,259.93,-119
00:39:34,283.48,-118
00:39:34,267,-120
00:39:34,240.84,-116
00:39:34.1,217.9,-114
00:39:34.1,197.62,-114
00:39:34.1,187.6,-115
00:39:34.1,177.06,-113
00:39:34.1,159.44,-111
00:39:34.1,122.47,-112
00:39:34.2,58.52,-113
00:39:34.2,-8.68,-114
00:39:34.2,-73.47,-112
00:39:34.2,-118.84,-111
00:39:34.3,-149.36,-107
00:39:34.3,-155.44,-106
00:39:34.3,-149.93,-106
00:39:34.3,-144.12,-106
00:39:34.3,-138.79,-104
00:39:34.3,-131.18,-102
00:39:34.4,-114.26,-103
00:39:34.4,-91.92,-103
00:39:34.4,-78.56,-105
00:39:34.4,-70.08,-105
00:39:34.5,-65.8,-104
00:39:34.5,-56.77,-103
00:39:34.5,-44.61,-103
00:39:34.5,-31.36,-103
00:39:34.5,-21.17,-104
00:39:34.5,-16.68,-105
00:39:34.6,-9.58,-104
00:39:34.6,-4.85,-104
00:39:34.6,-1.89,-105
00:39:34.6,2.07,-103
00:39:34.6,4.78,-102
00:39:34.7,2.34,-102
00:39:34.7,18.97,-101
00:39:34.7,119.34,-102
00:39:34.7,206.83,-103
00:39:34.7,90.08,-103
00:39:34.8,-29.5,-103
00:39:34.8,-44.81,-102
00:39:34.8,-39.26,-101
00:39:34.8,-33.53,-102
00:39:34.9,-25.81,-102
00:39:34.9,-23.09,-103
00:39:34.9,-28.06,-103
00:39:34.9,-29.5,-105
00:39:35,-28.14,-110
00:39:35,-30.15,-117
00:39:35,-31.86,-123
00:39:35,-26.41,-130
00:39:35,-9.75,-133
00:39:35,7.79,-136
00:39:35,22.83,-138
00:39:35.1,37.41,-139
00:39:35.1,46.68,-136
00:39:35.1,45.03,-135
00:39:35.2,40.19,-134
00:39:35.2,36.74,-131
00:39:35.2,32.34,-132
00:39:35.2,23.69,-130
00:39:35.2,-4.16,-128
00:39:35.2,-62.59,-128
00:39:35.3,-121.15,-125
00:39:35.3,-147.14,-124
00:39:35.3,-3.42,-124
00:39:35.3,132.06,-125
00:39:35.3,117.97,-123
00:39:35.3,115.19,-119
00:39:35.4,107.67,-120
00:39:35.4,98.42,-121
00:39:35.4,92.2,-120
00:39:35.4,89.34,-118
00:39:35.4,84.64,-115
00:39:35.5,78.08,-113
00:39:35.5,64.21,-113
00:39:35.5,35.14,-113
00:39:35.6,-3.23,-113
00:39:35.6,-40.03,-113
00:39:35.6,-64.55,-116
00:39:35.6,-77.15,-116
00:39:35.6,-83.74,-116
00:39:35.6,-79.9,-116
00:39:35.6,-71.64,-117
00:39:35.7,-64.46,-118
00:39:35.7,-58.58,-116
00:39:35.7,-53.45,-115
00:39:35.8,-52.2,-113
00:39:35.8,-45.51,-111
00:39:35.8,-14.39,-111
00:39:35.8,32.94,-112
00:39:35.8,13.52,-113
00:39:35.8,-42.07,-113
00:39:35.8,-73.94,-113
00:39:35.9,-41.11,-111
00:39:35.9,9.59,-110
00:39:35.9,44.97,-108
00:39:35.9,53.96,-108
00:39:35.9,42.62,-108
00:39:36,9.67,-107
00:39:36,-11.59,-106
00:39:36,3.75,-105
00:39:36,28.95,-106
00:39:36.1,45.77,-105
00:39:36.1,26.06,-105
00:39:36.1,60.97,-103
00:39:36.1,158.01,-101
00:39:36.1,172.61,-103
00:39:36.2,32.17,-104
00:39:36.2,-85.05,-105
00:39:36.2,-80.37,-105
00:39:36.2,-67.92,-103
00:39:36.2,-60.22,-103
00:39:36.2,-54.23,-104
00:39:36.3,-47.05,-105
00:39:36.3,-37.55,-107
00:39:36.3,-26.39,-108
00:39:36.3,-21.72,-114
00:39:36.3,-23.44,-119
00:39:36.4,-19.57,-125
00:39:36.4,-8.23,-129
00:39:36.4,7.83,-133
00:39:36.4,20.35,-137
00:39:36.5,25.4,-140
00:39:36.5,27.88,-141
00:39:36.5,26.61,-142
00:39:36.5,27.11,-139
00:39:36.5,26.79,-136
00:39:36.5,30.51,-134
00:39:36.6,21.16,-133
00:39:36.6,-156.29,-133
00:39:36.6,-261.27,-133
00:39:36.6,-241.71,-130
00:39:36.7,-57.92,-129
00:39:36.7,152.02,-129
00:39:36.7,305.98,-128
00:39:36.7,324.85,-127
00:39:36.7,302.06,-124
00:39:36.7,271.22,-121
00:39:36.8,241.7,-120
00:39:36.8,222.2,-118
00:39:36.8,203.01,-118
00:39:36.8,179.76,-115
00:39:36.9,141.53,-112
00:39:36.9,94.32,-113
00:39:36.9,33.05,-114
00:39:36.9,-26.46,-113
00:39:36.9,-88.86,-112
00:39:36.9,-143.34,-109
00:39:37,-174.99,-109
00:39:37,-183.81,-109
00:39:37,-181.42,-110
00:39:37,-171.94,-108
00:39:37.1,-151.49,-107
00:39:37.1,-120.7,-105
00:39:37.1,-104.31,-105
00:39:37.1,-94.17,-104
00:39:37.1,-85.84,-104
00:39:37.1,-77.61,-102
00:39:37.2,-63.77,-101
00:39:37.2,-48.66,-100
00:39:37.2,-29.03,-100
00:39:37.2,-20.3,-101
00:39:37.3,-16.42,-102
00:39:37.3,-10.7,-102
00:39:37.3,-1.54,-101
00:39:37.3,7.61,-101
00:39:37.3,15.66,-101
00:39:37.3,22.87,-100
00:39:37.4,20.11,-101
00:39:37.4,16.86,-103
00:39:37.4,13.41,-102
00:39:37.4,3.56,-101
00:39:37.5,37.31,-101
00:39:37.5,125.69,-98
00:39:37.5,159.49,-98
00:39:37.5,22.87,-99
00:39:37.5,-88.32,-99
00:39:37.6,-85.25,-99
00:39:37.6,-75.19,-99
00:39:37.6,-59.85,-99
00:39:37.6,-43.59,-98
00:39:37.6,-32.71,-100
00:39:37.7,-27.13,-100
00:39:37.7,-22.7,-102
00:39:37.7,-21.85,-106
00:39:37.7,-23.75,-112
00:39:37.8,-18.83,-120
00:39:37.8,-1,-126
00:39:37.8,18.37,-130
00:39:37.8,30.41,-134
00:39:37.8,42,-137
00:39:37.9,49.09,-139
00:39:37.9,47.31,-139
00:39:37.9,44.17,-138
00:39:37.9,41.54,-138
00:39:37.9,37.64,-137
00:39:37.9,32.03,-135
00:39:38,31.52,-133
00:39:38,26.7,-131
00:39:38,-3.7,-128
00:39:38,-84.02,-127
00:39:38,-120.82,-126
00:39:38,-105.37,-126
00:39:38.1,39.68,-125
00:39:38.1,92.53,-122
00:39:38.1,95.52,-118
00:39:38.1,97.93,-116
00:39:38.2,92.27,-115
00:39:38.2,86.13,-115
00:39:38.2,81.31,-115
00:39:38.2,82.16,-115
00:39:38.2,84.32,-115
00:39:38.2,80.88,-113
00:39:38.3,68.02,-111
00:39:38.3,35.88,-110
00:39:38.3,-1.32,-109
00:39:38.3,-35.44,-110
00:39:38.4,-55.3,-113
00:39:38.4,-71.28,-115
00:39:38.4,-71.79,-115
00:39:38.4,-62.02,-115
00:39:38.4,-43.9,-113
00:39:38.5,-35.5,-113
00:39:38.5,-36.41,-112
00:39:38.5,-37.48,-110
00:39:38.5,-34.59,-110
00:39:38.5,-32.43,-109
00:39:38.5,-28.88,-107
00:39:38.6,-23.45,-106
00:39:38.6,-19.3,-105
00:39:38.6,-15.83,-105
00:39:38.6,-12.75,-106
00:39:38.6,-6.81,-107
00:39:38.7,-2.86,-107
00:39:38.7,-1.03,-106
00:39:38.7,0.57,-104
00:39:38.8,2.51,-103
00:39:38.8,4.46,-103
00:39:38.8,3.59,-103
00:39:38.8,2.49,-103
00:39:38.8,3.81,-104
00:39:38.8,5.37,-103
00:39:38.9,6.81,-102
00:39:38.9,7.5,-104
00:39:38.9,9.02,-103
00:39:38.9,7.51,-103
00:39:38.9,32.21,-101
00:39:38.9,158.56,-101
00:39:39,207.35,-99
00:39:39,37.27,-97
00:39:39,-79.46,-96
00:39:39,-72.55,-96
00:39:39.1,-56.14,-96
00:39:39.1,-42.87,-98
00:39:39.1,-36.27,-97
00:39:39.1,-36.69,-99
00:39:39.1,-38.32,-101
00:39:39.1,-37.15,-104
00:39:39.2,-34.87,-108
00:39:39.2,-34.21,-113
00:39:39.2,-32.67,-119
00:39:39.3,-22.84,-126
00:39:39.3,-3.76,-133
00:39:39.3,9.6,-139
00:39:39.3,20.62,-143
00:39:39.3,25.98,-144
00:39:39.3,28.15,-145
00:39:39.3,29.38,-142
00:39:39.4,30.67,-139
00:39:39.4,32.74,-138
00:39:39.4,27.26,-136
00:39:39.5,-125.47,-137
00:39:39.5,-267.01,-136
00:39:39.5,-249.18,-134
00:39:39.5,-83.06,-131
00:39:39.5,165.66,-129
00:39:39.5,292.1,-127
00:39:39.5,292.94,-126
00:39:39.6,276.35,-124
00:39:39.6,241.23,-121
00:39:39.6,213.59,-118
00:39:39.6,200.63,-118
00:39:39.7,186.7,-115
00:39:39.7,163.99,-115
00:39:39.7,122.94,-114
00:39:39.7,68.27,-113
00:39:39.7,16.26,-112
00:39:39.7,-34.61,-113
00:39:39.8,-52.92,-111
00:39:39.8,-58.08,-111
00:39:39.8,-59.7,-108
00:39:39.9,-60.24,-106
00:39:39.9,-60.16,-103
00:39:39.9,-57.9,-102
00:39:39.9,-55.36,-102
00:39:39.9,-54.86,-102
00:39:39.9,-56.66,-101
00:39:39.9,-58.06,-99
00:39:40,-56.78,-96
00:39:40,-56.23,-96
00:39:40,-61.48,-96
00:39:40,-65.68,-96
00:39:40,-63.52,-96
00:39:40.1,-58.05,-97
00:39:40.1,-60.46,-97
00:39:40.1,-21.89,-98
00:39:40.2,125.54,-99
00:39:40.2,168.25,-99
00:39:40.2,-10.67,-98
00:39:40.2,-110.66,-97
00:39:40.2,-100.89,-95
00:39:40.2,-91.15,-94
00:39:40.3,-79.9,-94
00:39:40.3,-84.41,-95
00:39:40.3,-93.05,-95
00:39:40.3,-80.83,-96
00:39:40.3,-58.43,-101
00:39:40.4,-40.29,-108
00:39:40.4,-74.58,-114
00:39:40.4,-110.37,-120
00:39:40.4,-121.47,-123
00:39:40.4,-125.11,-129
00:39:40.4,-116.97,-133
00:39:40.5,-102.76,-136
00:39:40.5,-82.29,-138
00:39:40.5,-68.93,-136
00:39:40.5,-58.19,-135
00:39:40.6,-44.08,-133
00:39:40.6,-27.9,-132
00:39:40.6,-10.57,-131
00:39:40.6,4.71,-132
00:39:40.6,22.88,-131
00:39:40.7,42.98,-128
00:39:40.7,51.04,-126
00:39:40.7,54.65,-125
00:39:40.7,64.65,-124
00:39:40.7,81.62,-122
00:39:40.7,94.42,-122
00:39:40.8,94.14,-120
00:39:40.8,90.4,-116
00:39:40.8,82.32,-114
00:39:40.9,78.81,-111
00:39:40.9,81.75,-109
00:39:40.9,82.3,-109
00:39:40.9,84.17,-110
00:39:40.9,83.43,-109
00:39:41,80.08,-107
00:39:41,70.41,-106
00:39:41,53.5,-104
00:39:41,55.23,-102
00:39:41,114.57,-102
00:39:41,216.13,-102
00:39:41,103.24,-102
00:39:41.1,-46.71,-102
00:39:41.1,-62.98,-99
00:39:41.1,-56.52,-98
00:39:41.1,-50.45,-98
00:39:41.1,-36.11,-98
00:39:41.2,-22.09,-98
00:39:41.2,-15.97,-98
00:39:41.2,-17.11,-100
00:39:41.2,-4.15,-103
00:39:41.2,9.8,-107
00:39:41.3,20.64,-113
00:39:41.3,37.43,-119
00:39:41.3,55.29,-123
00:39:41.3,60.79,-127
00:39:41.3,58.67,-132
00:39:41.4,57.95,-135
00:39:41.4,57.29,-136
00:39:41.4,57.21,-135
00:39:41.4,52.37,-132
00:39:41.5,40.17,-129
00:39:41.5,18.34,-126
00:39:41.5,-19.5,-124
00:39:41.5,-54.3,-124
00:39:41.5,-75.15,-125
00:39:41.5,-86.93,-125
00:39:41.6,-88.95,-124
00:39:41.6,-90.36,-121
00:39:41.6,-88.34,-119
00:39:41.6,-82.72,-118
00:39:41.6,-72.27,-116
00:39:41.7,-67.27,-116
00:39:41.7,-63.98,-115
00:39:41.7,-59.38,-113
00:39:41.7,-53.45,-110
00:39:41.8,-45.97,-109
00:39:41.8,-32.58,-108
00:39:41.8,-23.69,-108
00:39:41.8,58.67,-106
00:39:41.8,149.71,-104
00:39:41.8,118.15,-101
00:39:41.9,-32.04,-100
00:39:41.9,-95.02,-100
00:39:41.9,-78.31,-101
00:39:41.9,-58.69,-101
00:39:42,-40.71,-101
00:39:42,-29.45,-99
00:39:42,-22.68,-97
00:39:42,-15.45,-97
00:39:42,-11.81,-97
00:39:42,-11.9,-99
00:39:42.1,-7,-105
00:39:42.1,0.65,-111
00:39:42.1,12.92,-117
00:39:42.1,26.4,-123
00:39:42.2,40.77,-127
00:39:42.2,53.12,-129
00:39:42.2,53.7,-130
00:39:42.2,52.99,-129
00:39:42.2,51.36,-129
00:39:42.2,48.93,-128
00:39:42.3,45.32,-125
00:39:42.3,41.4,-124
00:39:42.3,38.98,-122
00:39:42.3,39.81,-119
00:39:42.3,41.19,-117
00:39:42.4,36.99,-116
00:39:42.4,28.92,-117
00:39:42.4,21.79,-117
00:39:42.4,16.88,-116
00:39:42.5,8.24,-114
00:39:42.5,79.92,-113
00:39:42.5,196.9,-111
00:39:42.5,125.66,-109
00:39:42.5,-65.28,-110
00:39:42.5,-109.77,-110
00:39:42.6,-101.53,-109
00:39:42.6,-94.94,-106
00:39:42.6,-89.36,-103
00:39:42.6,-81.77,-102
00:39:42.6,-65.58,-102
00:39:42.7,-50.1,-103
00:39:42.7,-46.58,-101
00:39:42.7,-42.2,-101
00:39:42.7,-33.34,-105
00:39:42.8,-25.04,-109
00:39:42.8,-16.25,-111
00:39:42.8,0.54,-118
00:39:42.8,17.53,-123
00:39:42.8,23.5,-126
00:39:42.8,23.78,-128
00:39:42.9,22.75,-128
00:39:42.9,21.22,-127
00:39:42.9,20.18,-124
00:39:42.9,21.32,-122
00:39:43,20.64,-123
00:39:43,22.06,-123
00:39:43,25.51,-122
00:39:43,32.69,-120
00:39:43,33.9,-117
00:39:43,32.76,-113
00:39:43.1,36.2,-113
00:39:43.1,36.12,-113
00:39:43.1,34.92,-112
00:39:43.1,32.6,-111
00:39:43.2,20.37,-109
00:39:43.2,33.57,-107
00:39:43.2,123.45,-103
00:39:43.2,184.66,-103
00:39:43.2,-3.26,-103
00:39:43.3,-135.29,-102
00:39:43.3,-134.08,-102
00:39:43.3,-127.37,-101
00:39:43.3,-117.95,-100
00:39:43.3,-106.63,-101
00:39:43.3,-97.99,-102
00:39:43.4,-83.01,-101
00:39:43.4,-68.78,-101
00:39:43.4,-54.7,-99
00:39:43.4,-37.33,-102
00:39:43.5,-25.78,-107
00:39:43.5,-16.17,-113
00:39:43.5,-4.34,-118
00:39:43.5,17.09,-122
00:39:43.5,32.48,-125
00:39:43.5,40.48,-127
00:39:43.6,41.99,-128
00:39:43.6,39.85,-127
00:39:43.6,36.39,-124
00:39:43.6,33.68,-123
00:39:43.6,33.4,-123
00:39:43.7,30.84,-122
00:39:43.7,27.31,-121
00:39:43.7,28.01,-120
00:39:43.7,30.3,-118
00:39:43.8,30.55,-118
00:39:43.8,30.67,-118
00:39:43.8,29.85,-118
00:39:43.8,29.42,-114
00:39:43.8,29.76,-111
00:39:43.9,29.41,-109
00:39:43.9,28.75,-107
00:39:43.9,26.97,-106
00:39:43.9,17.84,-106
00:39:43.9,52.16,-105
00:39:44,160.7,-103
00:39:44,189.53,-102
00:39:44,35.49,-99
00:39:44,-77.05,-98
00:39:44,-76.08,-97
00:39:44,-72.5,-97
00:39:44.1,-67.17,-96
00:39:44.1,-61.1,-98
00:39:44.1,-57.9,-98
00:39:44.1,-52.45,-98
00:39:44.2,-49.22,-97
00:39:44.2,-45.05,-97
00:39:44.2,-36.2,-99
00:39:44.2,-24.6,-106
00:39:44.2,-12.8,-111
00:39:44.2,3.19,-114
00:39:44.3,18.27,-118
00:39:44.3,24.96,-121
00:39:44.3,26.71,-124
00:39:44.3,25.98,-126
00:39:44.3,24.98,-126
00:39:44.4,21.36,-124
00:39:44.4,17.62,-121
00:39:44.4,14.3,-117
00:39:44.4,9.82,-116
00:39:44.4,5.22,-115
00:39:44.5,2.71,-115
00:39:44.5,1.98,-114
00:39:44.5,2.98,-114
00:39:44.5,3.59,-112
00:39:44.6,3.97,-112
00:39:44.6,3.97,-111
00:39:44.6,3.98,-109
00:39:44.6,3.82,-107
00:39:44.6,4.15,-105
00:39:44.7,5.35,-104
00:39:44.7,6.35,-102
00:39:44.7,7.71,-101
00:39:44.7,8.88,-99
00:39:44.7,10.31,-98
00:39:44.7,10.52,-97
00:39:44.8,6.77,-97
00:39:44.8,32.02,-96
00:39:44.8,126.49,-96
00:39:44.8,159.74,-95
00:39:44.8,16.76,-96
00:39:44.9,-94.63,-97
00:39:44.9,-91.28,-97
00:39:44.9,-82.21,-97
00:39:44.9,-64.85,-96
00:39:45,-55.16,-96
00:39:45,-56.31,-94
00:39:45,-53.2,-93
00:39:45,-45.06,-94
00:39:45,-32.3,-95
00:39:45,-24.99,-98
00:39:45.1,-20.94,-103
00:39:45.1,-12.04,-110
00:39:45.1,10.06,-116
00:39:45.1,32.84,-121
00:39:45.1,29.21,-125
00:39:45.2,20.14,-126
00:39:45.2,14.75,-125
00:39:45.2,16.47,-124
00:39:45.2,18.75,-122
00:39:45.3,21.58,-122
00:39:45.3,20.54,-121
00:39:45.3,19.35,-120
00:39:45.3,18.62,-120
00:39:45.3,17.89,-118
00:39:45.3,15.58,-116
00:39:45.4,14.73,-114
00:39:45.4,15.39,-112
00:39:45.4,11.32,-111
00:39:45.4,21.24,-110
00:39:45.5,107.84,-112
00:39:45.5,199.12,-110
00:39:45.5,48.97,-107
00:39:45.5,-94.96,-106
00:39:45.5,-94.06,-106
00:39:45.5,-86.93,-106
00:39:45.6,-77.62,-106
00:39:45.6,-66.51,-105
00:39:45.6,-53.57,-103
00:39:45.6,-43.33,-101
00:39:45.6,-40.61,-102
00:39:45.7,-38.9,-102
00:39:45.7,-34.63,-102
00:39:45.7,-21.29,-104
00:39:45.7,-1.88,-106
00:39:45.8,12.45,-111
00:39:45.8,22.39,-115
00:39:45.8,29.66,-117
00:39:45.8,33.31,-121
00:39:45.8,32.19,-124
00:39:45.8,31.37,-124
00:39:45.9,30.94,-123
00:39:45.9,30.7,-122
00:39:45.9,30.32,-117
00:39:45.9,28.6,-117
00:39:46,23.21,-116
00:39:46,13.7,-117
00:39:46,10.37,-116
00:39:46,11.15,-114
00:39:46,11.1,-113
00:39:46,8.14,-110
00:39:46.1,3.06,-106
00:39:46.1,63.44,-105
00:39:46.1,197.4,-105
00:39:46.1,131.61,-105
00:39:46.1,-52.5,-105
00:39:46.2,-103.36,-102
00:39:46.2,-96.19,-100
00:39:46.2,-86.9,-100
00:39:46.2,-69.98,-102
00:39:46.2,-53.97,-102
00:39:46.3,-42.14,-102
00:39:46.3,-38.13,-100
00:39:46.3,-37.55,-100
00:39:46.3,-32.63,-101
00:39:46.3,-20.8,-105
00:39:46.4,-8.49,-111
00:39:46.4,7.42,-116
00:39:46.4,20.96,-120
00:39:46.4,30.39,-123
00:39:46.4,33.24,-123
00:39:46.5,34.07,-125
00:39:46.5,33.69,-127
00:39:46.5,31.51,-127
00:39:46.5,26.32,-126
00:39:46.5,17.43,-123
00:39:46.6,9.14,-120
00:39:46.6,8.47,-118
00:39:46.6,8.29,-118
00:39:46.6,8.5,-117
00:39:46.6,7.9,-115
00:39:46.7,7.46,-113
00:39:46.7,7.36,-111
00:39:46.7,7.85,-111
00:39:46.7,9.57,-111
00:39:46.7,13.13,-110
00:39:46.8,16.91,-109
00:39:46.8,13.06,-109
00:39:46.8,18.43,-107
00:39:46.8,95.69,-104
00:39:46.8,238.62,-104
00:39:46.9,113.26,-103
00:39:46.9,-61.99,-104
00:39:46.9,-76.23,-105
00:39:46.9,-71.14,-103
00:39:47,-61.75,-100
00:39:47,-52.33,-99
00:39:47,-43.04,-97
00:39:47,-36.96,-96
00:39:47,-43.01,-97
00:39:47.1,-52.11,-98
00:39:47.1,-47.32,-101
00:39:47.1,-41.98,-106
00:39:47.1,-35.33,-112
00:39:47.1,-23.8,-116
00:39:47.1,-6.32,-119
00:39:47.2,10.09,-122
00:39:47.2,14.23,-124
00:39:47.2,14.64,-125
00:39:47.2,12.23,-128
00:39:47.2,5,-127
00:39:47.3,-2.33,-126
00:39:47.3,-4.37,-123
00:39:47.3,-4.64,-121
00:39:47.3,-4.44,-120
00:39:47.4,-2.57,-118
00:39:47.4,-0.88,-117
00:39:47.4,1.33,-116
00:39:47.4,4.03,-115
00:39:47.4,10.92,-114
00:39:47.4,14.07,-113
00:39:47.4,14.49,-113
00:39:47.5,10.68,-111
00:39:47.5,3.74,-108
00:39:47.5,-0.33,-107
00:39:47.5,2.72,-105
00:39:47.6,5.49,-104
00:39:47.6,9.05,-101
00:39:47.6,9.03,-100
00:39:47.6,8.71,-99
00:39:47.6,6.77,-98
00:39:47.7,4.69,-98
00:39:47.7,0.36,-96
00:39:47.7,-0.23,-96
00:39:47.7,0.51,-97
00:39:47.7,0.94,-97
00:39:47.8,1.95,-97
00:39:47.8,3.78,-97
00:39:47.8,5.68,-96
00:39:47.8,9.44,-97
00:39:47.8,12.16,-96
00:39:47.9,7.62,-94
00:39:47.9,8.72,-94
00:39:47.9,59.09,-94
00:39:47.9,178.83,-93
00:39:47.9,87.15,-93
00:39:47.9,-66.75,-91
00:39:48,-80.18,-91
00:39:48,-74.49,-92
00:39:48,-63.61,-91
00:39:48,-50.16,-91
00:39:48.1,-38.12,-93
00:39:48.1,-34.79,-94
00:39:48.1,-35.89,-94
00:39:48.1,-37.82,-97
00:39:48.1,-37.88,-101
00:39:48.2,-36.56,-105
00:39:48.2,-29.81,-111
00:39:48.2,-9.31,-115
00:39:48.2,16.03,-120
00:39:48.2,22.12,-126
00:39:48.2,24.37,-129
00:39:48.3,29.99,-129
00:39:48.3,32.51,-130
00:39:48.3,30.57,-127
00:39:48.3,27.28,-125
00:39:48.4,24.25,-124
00:39:48.4,14.52,-125
00:39:48.4,-4.4,-124
00:39:48.4,-110.93,-124
00:39:48.5,-262.65,-122
00:39:48.5,-39.85,-119
00:39:48.5,1.23,-118
00:39:48.5,122.14,-117
00:39:48.5,148,-115
00:39:48.5,133.21,-114
00:39:48.6,114.35,-111
00:39:48.6,101.13,-110
00:39:48.6,97.69,-108
00:39:48.6,97.34,-108
00:39:48.6,97.92,-108
00:39:48.7,97.94,-108
00:39:48.7,92.3,-106
00:39:48.7,65.69,-105
00:39:48.7,10.72,-103
00:39:48.7,-32.15,-105
00:39:48.8,-63.01,-104
00:39:48.8,-80.53,-104
00:39:48.8,-84.46,-103
00:39:48.8,-82.64,-102
00:39:48.9,-79.89,-99
00:39:48.9,-74.63,-99
00:39:48.9,-65.15,-97
00:39:48.9,-53.88,-96
00:39:48.9,-37.53,-97
00:39:48.9,-28.14,-98
00:39:48.9,-21.85,-97
00:39:49,-15.83,-96
00:39:49,-10.55,-96
00:39:49,-4.6,-99
00:39:49,5.72,-98
00:39:49.1,13.81,-96
00:39:49.1,16.85,-95
00:39:49.1,17.86,-96
00:39:49.1,17.55,-95
00:39:49.1,15.69,-94
00:39:49.2,13.88,-94
00:39:49.2,11.25,-93
00:39:49.2,10.03,-94
00:39:49.2,10.02,-94
00:39:49.2,8.52,-93
00:39:49.2,22.65,-92
00:39:49.3,126.09,-93
00:39:49.3,210.32,-94
00:39:49.3,40.21,-96
00:39:49.3,-89.75,-97
00:39:49.4,-87.18,-97
00:39:49.4,-76.76,-97
00:39:49.4,-62.8,-96
00:39:49.4,-45.58,-97
00:39:49.4,-26.13,-96
00:39:49.4,-15.87,-96
00:39:49.5,-6.4,-99
00:39:49.5,4.88,-103
00:39:49.5,10.67,-111
00:39:49.5,14.14,-117
00:39:49.5,19.74,-122
00:39:49.6,-6.54,-126
00:39:49.6,-56.18,-130
00:39:49.6,-79.01,-135
00:39:49.6,-86.58,-137
00:39:49.7,-89.85,-138
00:39:49.7,-86.07,-136
00:39:49.7,-78.18,-133
00:39:49.7,-53.07,-131
00:39:49.8,-12.3,-129
00:39:49.8,11.15,-128
00:39:49.8,-6.45,-126
00:39:49.8,-55.53,-126
00:39:49.8,-106.02,-126
00:39:49.8,-132.51,-123
00:39:49.9,-43.42,-121
00:39:49.9,208.04,-120
00:39:49.9,223.41,-119
00:39:49.9,220.97,-118
00:39:50,208.27,-117
00:39:50,192.79,-115
00:39:50,181.96,-116
00:39:50,170.48,-116
00:39:50,161.84,-114
00:39:50,158.93,-111
00:39:50,141.52,-109
00:39:50.1,96.4,-110
00:39:50.1,44.06,-109
00:39:50.1,10.52,-109
00:39:50.1,-16.57,-108
00:39:50.1,-53.5,-108
00:39:50.2,-92.32,-110
00:39:50.2,-98.65,-111
00:39:50.2,-89.37,-113
00:39:50.3,-76.47,-115
00:39:50.3,-63.08,-112
00:39:50.3,-47.04,-110
00:39:50.3,-38.68,-109
00:39:50.3,-32.22,-107
00:39:50.3,-28.21,-107
00:39:50.3,-26.64,-107
00:39:50.4,-26.78,-108
00:39:50.4,-25.98,-108
00:39:50.4,-26.52,-107
00:39:50.5,-26.88,-106
00:39:50.5,-24.5,-103
00:39:50.5,-21.2,-102
00:39:50.5,-21.9,-102
00:39:50.5,-23.52,-102
00:39:50.5,-27.23,-103
00:39:50.5,-30,-102
00:39:50.6,-32.85,-101
00:39:50.6,-35.78,-99
00:39:50.6,-37.52,-97
00:39:50.6,-34.37,-97
00:39:50.7,-29.34,-98
00:39:50.7,-24.42,-99
00:39:50.7,-20.28,-101
00:39:50.7,-13.96,-102
00:39:50.7,-4.53,-103
00:39:50.7,8.28,-102
00:39:50.8,13.32,-99
00:39:50.8,14.75,-98
00:39:50.8,18.9,-98
00:39:50.8,23,-98
00:39:50.9,24.39,-97
00:39:50.9,24.24,-98
00:39:50.9,22.21,-97
00:39:50.9,17.9,-98
00:39:50.9,14.07,-99
00:39:50.9,11.79,-99
00:39:51,12.28,-99
00:39:51,10.32,-100
00:39:51,49.57,-101
00:39:51,187.61,-99
00:39:51.1,177.68,-99
00:39:51.1,47.5,-99
00:39:51.1,-67.59,-98
00:39:51.1,-74.45,-97
00:39:51.1,-71.7,-96
00:39:51.1,-63.83,-96
00:39:51.2,-58.35,-96
00:39:51.2,-51.34,-98
00:39:51.2,-47.85,-100
00:39:51.2,-38.45,-103
00:39:51.3,-36.43,-109
00:39:51.3,-34.48,-114
00:39:51.3,-24.96,-119
00:39:51.3,4.22,-124
00:39:51.3,32.81,-128
00:39:51.3,31.39,-133
00:39:51.4,28.32,-137
00:39:51.4,26.86,-139
00:39:51.4,26.54,-139
00:39:51.4,22.09,-136
00:39:51.5,20.36,-134
00:39:51.5,22.46,-133
00:39:51.5,19.35,-133
00:39:51.5,-107.94,-133
00:39:51.5,-258.53,-131
00:39:51.5,-243.91,-129
00:39:51.6,-57.55,-126
00:39:51.6,155.96,-126
00:39:51.6,245.01,-125
00:39:51.6,238.65,-124
00:39:51.6,226.72,-120
00:39:51.7,213.4,-118
00:39:51.7,200.52,-117
00:39:51.7,190.26,-116
00:39:51.7,170,-117
00:39:51.7,151.84,-114
00:39:51.8,131.86,-114
00:39:51.8,88.11,-114
00:39:51.8,23.63,-113
00:39:51.9,-27.04,-112
00:39:51.9,-61.25,-110
00:39:51.9,-104.81,-108
00:39:51.9,-133.46,-107
00:39:51.9,-141.76,-107
00:39:51.9,-134.49,-107
00:39:51.9,-126.75,-104
00:39:52,-118.29,-102
00:39:52,-102.27,-101
00:39:52,-79.44,-103
00:39:52,-66.39,-103
00:39:52,-59.4,-105
00:39:52.1,-52.23,-105
00:39:52.1,-47.02,-102
00:39:52.1,-37.12,-102
00:39:52.2,-26.82,-103
00:39:52.2,-16.39,-104
00:39:52.2,-9.28,-105
00:39:52.2,-4.54,-105
00:39:52.2,1.36,-104
00:39:52.2,12.7,-102
00:39:52.3,29.11,-100
00:39:52.3,44.99,-100
00:39:52.3,55.43,-102
00:39:52.3,59.6,-102
00:39:52.4,60.83,-102
00:39:52.4,61.29,-101
00:39:52.4,60.29,-100
00:39:52.4,88.03,-100
00:39:52.4,183.73,-97
00:39:52.4,204.03,-96
00:39:52.5,68.93,-98
00:39:52.5,-22.58,-99
00:39:52.5,-31.15,-100
00:39:52.5,-39.99,-101
00:39:52.5,-46.64,-101
00:39:52.5,-46.84,-100
00:39:52.6,-45.43,-100
00:39:52.6,-43.6,-102
00:39:52.6,-42.37,-106
00:39:52.6,-41.62,-114
00:39:52.6,-41.44,-121
00:39:52.7,-38.81,-127
00:39:52.7,-28.95,-130
00:39:52.7,-6.25,-134
00:39:52.7,11.68,-137
00:39:52.7,23.38,-141
00:39:52.8,25.75,-143
00:39:52.8,19.74,-143
00:39:52.8,6.43,-141
00:39:52.9,-3.58,-139
00:39:52.9,-2.6,-136
00:39:52.9,-1.51,-133
00:39:52.9,-0.99,-132
00:39:52.9,-1.56,-130
00:39:52.9,-3.71,-130
00:39:52.9,-10.19,-129
00:39:53,-18.95,-129
00:39:53,-22.45,-129
00:39:53,-25.6,-127
00:39:53,-26.22,-124
00:39:53.1,-26.48,-122
00:39:53.1,-26.89,-120
00:39:53.1,-31.13,-120
00:39:53.1,-18.77,-119
00:39:53.1,92.12,-119
00:39:53.1,194.28,-117
00:39:53.2,18.76,-115
00:39:53.2,-117.62,-112
00:39:53.2,-117.04,-112
00:39:53.3,-111.04,-112
00:39:53.3,-97.41,-112
00:39:53.3,-76.88,-110
00:39:53.3,-57.25,-107
00:39:53.3,-46.13,-108
00:39:53.4,-47.99,-107
00:39:53.4,-44.36,-109
00:39:53.4,-32.95,-113
00:39:53.4,-10.87,-117
00:39:53.4,3.06,-123
00:39:53.4,17.31,-127
00:39:53.4,36.09,-130
00:39:53.5,48.96,-134
00:39:53.5,52.32,-137
00:39:53.5,54.17,-140
00:39:53.5,52.47,-141
00:39:53.6,47.91,-138
00:39:53.6,45.25,-134
00:39:53.6,42.64,-130
00:39:53.6,39.95,-128
00:39:53.6,36.35,-127
00:39:53.6,31.87,-126
00:39:53.7,24.91,-125
00:39:53.7,11.51,-124
00:39:53.7,2.69,-122
00:39:53.7,9.54,-119
00:39:53.7,81.9,-117
00:39:53.8,198.1,-116
00:39:53.8,116.52,-113
00:39:53.8,-36.19,-114
00:39:53.9,-52.02,-115
00:39:53.9,-66.33,-113
00:39:53.9,-82.48,-112
00:39:53.9,-81.45,-110
00:39:53.9,-68.36,-109
00:39:53.9,-36.93,-109
00:39:53.9,-13.26,-110
00:39:54,-22.18,-109
00:39:54,-30.79,-111
00:39:54,-26.73,-113
00:39:54,-22.86,-116
00:39:54.1,-21.05,-119
00:39:54.1,-10.77,-124
00:39:54.1,11.41,-129
00:39:54.1,31.75,-132
00:39:54.1,34.14,-131
00:39:54.2,26.67,-131
00:39:54.2,13.01,-128
00:39:54.2,4.46,-125
00:39:54.2,15.62,-124
00:39:54.2,23.45,-124
00:39:54.2,19.08,-124
00:39:54.3,10.45,-122
00:39:54.3,4.41,-122
00:39:54.3,2.02,-122
00:39:54.3,-1.49,-119
00:39:54.4,-3.92,-116
00:39:54.4,-2.33,-114
00:39:54.4,1.76,-114
00:39:54.4,7.52,-112
00:39:54.4,3.24,-110
00:39:54.5,7.95,-110
00:39:54.5,60.67,-109
00:39:54.5,155.53,-110
00:39:54.5,42.9,-109
00:39:54.5,-97.47,-108
00:39:54.6,-95.15,-107
00:39:54.6,-78.36,-103
00:39:54.6,-62.26,-102
00:39:54.6,-54.41,-102
00:39:54.7,-55.36,-102
00:39:54.7,-50.71,-103
00:39:54.7,-41.06,-103
00:39:54.7,-25.71,-101
00:39:54.7,-8.91,-103
00:39:54.7,-0.55,-108
00:39:54.7,6.45,-115
00:39:54.8,14.69,-122
00:39:54.8,29.99,-128
00:39:54.8,53.75,-131
00:39:54.8,65.99,-134
00:39:54.9,67.33,-134
00:39:54.9,64.52,-132
00:39:54.9,52.54,-130
00:39:54.9,35.52,-127
00:39:54.9,26.77,-126
00:39:55,22.02,-126
00:39:55,21.49,-126
00:39:55,23.13,-125
00:39:55,25.16,-123
00:39:55,20.85,-121
00:39:55,5.96,-118
00:39:55.1,-11.8,-116
00:39:55.1,80.2,-114
00:39:55.1,165.4,-113
00:39:55.1,80.96,-113
00:39:55.2,-90.64,-111
00:39:55.2,-108.98,-108
00:39:55.2,-101.64,-105
00:39:55.2,-94.12,-105
00:39:55.2,-86.59,-105
00:39:55.2,-78.27,-106
00:39:55.3,-65.85,-106
00:39:55.3,-53.03,-104
00:39:55.3,-43.79,-105
00:39:55.3,-40.24,-105
00:39:55.4,-34.71,-108
00:39:55.4,-25.66,-113
00:39:55.4,-15.9,-116
00:39:55.4,-0.72,-120
00:39:55.5,21.54,-121
00:39:55.5,36.76,-123
00:39:55.5,36.23,-124
00:39:55.5,31.86,-125
00:39:55.5,26.36,-124
00:39:55.5,27.69,-123
00:39:55.5,32.87,-120
00:39:55.6,35.78,-117
00:39:55.6,31.97,-115
00:39:55.6,22.1,-113
00:39:55.7,7.3,-113
00:39:55.7,-0.32,-112
00:39:55.7,2.82,-112
00:39:55.7,3.38,-112
00:39:55.7,-2.3,-112
00:39:55.7,-18.4,-111
00:39:55.7,-32.33,-110
00:39:55.8,-28.74,-107
00:39:55.8,-22.26,-106
00:39:55.8,-9.79,-107
00:39:55.8,11.22,-106
00:39:55.9,26.45,-105
00:39:55.9,28.22,-105
00:39:55.9,27.18,-104
00:39:55.9,27.12,-102
00:39:55.9,30.05,-100
00:39:55.9,31.83,-100
00:39:56,29.79,-100
00:39:56,25.59,-100
00:39:56,19.65,-100
00:39:56,14.24,-100
00:39:56.1,12.58,-99
00:39:56.1,15.17,-98
00:39:56.1,16.7,-96
00:39:56.1,15.03,-96
00:39:56.1,12.27,-95
00:39:56.1,10.64,-93
00:39:56.2,9,-94
00:39:56.2,1.51,-95
00:39:56.2,10.11,-93
00:39:56.2,108.68,-93
00:39:56.3,224.87,-93
00:39:56.3,81.44,-94
00:39:56.3,-68.2,-97
00:39:56.3,-60.49,-96
00:39:56.3,-62.7,-96
00:39:56.3,-63.76,-97
00:39:56.4,-59.15,-97
00:39:56.4,-44.64,-97
00:39:56.4,-30.45,-98
00:39:56.4,-38.24,-100
00:39:56.5,-50.54,-103
00:39:56.5,-54.07,-109
00:39:56.5,-41.54,-114
00:39:56.5,-17.64,-121
00:39:56.5,-5.13,-128
00:39:56.5,3.63,-133
00:39:56.6,9.92,-135
00:39:56.6,13.83,-137
00:39:56.6,10.52,-138
00:39:56.6,1.29,-136
00:39:56.7,-9.87,-135
00:39:56.7,-11.84,-132
00:39:56.7,-15.08,-131
00:39:56.7,-35.58,-130
00:39:56.7,-106.49,-130
00:39:56.7,-243.45,-129
00:39:56.8,-127.92,-126
00:39:56.8,-68.74,-123
00:39:56.8,129.97,-121
00:39:56.8,201.55,-122
00:39:56.9,217.08,-121
00:39:56.9,228.38,-120
00:39:56.9,225.54,-117
00:39:56.9,221.42,-116
00:39:57,214.14,-116
00:39:57,201.52,-115
00:39:57,182.51,-113
00:39:57,159.17,-110
00:39:57,116.86,-109
00:39:57,67.84,-108
00:39:57.1,25.4,-109
00:39:57.1,-18.4,-107
00:39:57.1,-61.7,-103
00:39:57.1,-82.06,-101
00:39:57.1,-79.79,-100
00:39:57.1,-84.81,-100
00:39:57.2,-85.9,-101
00:39:57.2,-84.05,-100
00:39:57.2,-80.79,-100
00:39:57.2,-84.13,-101
00:39:57.3,-85.35,-99
00:39:57.3,-80.98,-98
00:39:57.3,-71.27,-98
00:39:57.3,-59.4,-98
00:39:57.4,-57.87,-98
00:39:57.4,-56.6,-98
00:39:57.4,-50.58,-98
00:39:57.4,-36.55,-98
00:39:57.4,-29.64,-97
00:39:57.5,-34.44,-97
00:39:57.5,-33.7,-97
00:39:57.5,-31.96,-97
00:39:57.5,-30.22,-96
00:39:57.5,-35.32,-93
00:39:57.5,6.78,-92
00:39:57.5,129.68,-93
00:39:57.6,147.63,-93
00:39:57.6,2.34,-93
00:39:57.6,-104.97,-94
00:39:57.6,-98.55,-94
00:39:57.6,-90.29,-94
00:39:57.7,-79.51,-94
00:39:57.7,-62.31,-95
00:39:57.7,-44.57,-95
00:39:57.7,-34.9,-96
00:39:57.7,-30.58,-99
00:39:57.8,-28.74,-103
00:39:57.8,-28.43,-110
00:39:57.8,-20.34,-114
00:39:57.8,13.07,-118
00:39:57.9,62.28,-122
00:39:57.9,68.85,-126
00:39:57.9,58.12,-130
00:39:57.9,54.91,-132
00:39:57.9,59.33,-132
00:39:57.9,59.17,-130
00:39:58,52.8,-126
00:39:58,44.04,-124
00:39:58,45.17,-124
00:39:58,48.37,-125
00:39:58,50.74,-124
00:39:58.1,48.86,-123
00:39:58.1,43,-122
00:39:58.1,32.26,-120
00:39:58.1,13.8,-118
00:39:58.2,-3.82,-117
00:39:58.2,2.46,-116
00:39:58.2,93.83,-115
00:39:58.2,190.99,-114
00:39:58.2,92.29,-113
00:39:58.2,-69.04,-111
00:39:58.3,-90.73,-109
00:39:58.3,-78.07,-108
00:39:58.3,-66.65,-108
00:39:58.3,-63.65,-108
00:39:58.3,-61.88,-109
00:39:58.4,-60.33,-108
00:39:58.4,-57.36,-107
00:39:58.4,-54.85,-106
00:39:58.4,-56.09,-106
00:39:58.5,-54.35,-109
00:39:58.5,-51.18,-113
00:39:58.5,-45.56,-118
00:39:58.5,-38.92,-121
00:39:58.5,-26.11,-121
00:39:58.6,-12.5,-124
00:39:58.6,-4.82,-125
00:39:58.6,0.97,-125
00:39:58.6,3.14,-123
00:39:58.6,2.65,-122
00:39:58.6,1.47,-121
00:39:58.7,0.1,-120
00:39:58.7,-3.62,-119
00:39:58.7,-4.99,-120
00:39:58.7,-2.89,-117
00:39:58.8,-1.85,-116
00:39:58.8,1.27,-114
00:39:58.8,9.27,-114
00:39:58.8,18.35,-114
00:39:58.8,21.69,-115
00:39:58.8,16.55,-114
00:39:58.9,22.76,-112
00:39:58.9,91.03,-112
00:39:58.9,218.65,-111
00:39:58.9,115.56,-110
00:39:59,-51.17,-109
00:39:59,-62.36,-110
00:39:59,-58.08,-110
00:39:59,-52.27,-109
00:39:59,-45.3,-107
00:39:59.1,-35.24,-107
00:39:59.1,-24.74,-105
00:39:59.1,-20.54,-105
00:39:59.1,-15.66,-107
00:39:59.1,-2.84,-110
00:39:59.1,10.51,-116
00:39:59.2,23.45,-119
00:39:59.2,37.05,-124
00:39:59.2,47.72,-128
00:39:59.2,56.78,-130
00:39:59.3,61.16,-131
00:39:59.3,61.59,-133
00:39:59.3,53.89,-134
00:39:59.3,31.18,-133
00:39:59.3,7.47,-130
00:39:59.3,5.6,-128
00:39:59.4,4.34,-125
00:39:59.4,-4.14,-125
00:39:59.4,-18.94,-126
00:39:59.4,-35.06,-126
00:39:59.5,-52.4,-124
00:39:59.5,27.93,-126
00:39:59.5,186.82,-125
00:39:59.5,145.46,-124
00:39:59.5,-48.76,-120
00:39:59.5,-124.27,-117
00:39:59.6,-109.71,-116
00:39:59.6,-90.97,-116
00:39:59.6,-72.26,-115
00:39:59.6,-53.31,-113
00:39:59.7,-44.4,-109
00:39:59.7,-39.21,-109
00:39:59.7,-36.44,-109
00:39:59.7,-32.67,-111
00:39:59.7,-19.71,-113
00:39:59.8,3,-117
00:39:59.8,21.6,-119
00:39:59.8,32.73,-122
00:39:59.8,44.55,-124
00:39:59.8,50.66,-127
00:39:59.8,46.95,-129
00:39:59.9,39.75,-129
00:39:59.9,33.34,-129
00:39:59.9,25.56,-127
00:39:59.9,25.81,-124
00:40:00,24.02,-120
00:40:00,19.74,-118
00:40:00,6.68,-119
00:40:00,64.74,-119
00:40:00,193.08,-118
00:40:00.1,165.05,-117
00:40:00.1,-11.68,-115
00:40:00.1,-115.38,-113
00:40:00.1,-106.76,-112
00:40:00.1,-97.95,-111
00:40:00.2,-87.72,-110
00:40:00.2,-73.65,-111
00:40:00.2,-64.51,-109
00:40:00.2,-54.39,-106
00:40:00.2,-47.34,-107
00:40:00.2,-43.16,-107
00:40:00.3,-27.18,-112
00:40:00.3,6.79,-116
00:40:00.3,22.21,-118
00:40:00.3,26.27,-120
00:40:00.3,31.91,-121
00:40:00.4,34.56,-122
00:40:00.4,33.43,-124
00:40:00.4,32.57,-123
00:40:00.4,30.86,-121
00:40:00.5,29.29,-119
00:40:00.5,28.22,-117
00:40:00.5,23.94,-115
00:40:00.5,19.32,-114
00:40:00.5,16.36,-112
00:40:00.6,20.97,-112
00:40:00.6,14.85,-113
00:40:00.6,27.94,-112
00:40:00.6,124.96,-111
00:40:00.6,222.57,-110
00:40:00.6,58.38,-109
00:40:00.7,-77.18,-108
00:40:00.7,-77.01,-108
00:40:00.7,-72.62,-108
00:40:00.7,-67.03,-107
00:40:00.7,-63.44,-105
00:40:00.8,-60.45,-103
00:40:00.8,-54.19,-102
00:40:00.8,-49.46,-102
00:40:00.8,-43.27,-102
00:40:00.9,-35.22,-106
00:40:00.9,-24.81,-110
00:40:00.9,-13.2,-115
00:40:00.9,-0.91,-118
00:40:00.9,10.11,-119
00:40:00.9,15.77,-121
00:40:01,19.17,-125
00:40:01,21.91,-127
00:40:01,22.38,-127
00:40:01,20.65,-123
00:40:01,18.45,-121
00:40:01.1,19,-120
00:40:01.1,16.09,-119
00:40:01.1,10.18,-119
00:40:01.1,8.13,-120
00:40:01.1,10.54,-120
00:40:01.2,14.66,-118
00:40:01.2,17.49,-117
00:40:01.2,17.28,-114
00:40:01.2,11.06,-112
00:40:01.3,11.03,-109
00:40:01.3,52.15,-110
00:40:01.3,169.55,-109
00:40:01.3,95.87,-108
00:40:01.3,-67.32,-104
00:40:01.4,-95.37,-103
00:40:01.4,-87.18,-102
00:40:01.4,-80.9,-102
00:40:01.4,-74.86,-102
00:40:01.4,-64.2,-103
00:40:01.4,-52.38,-103
00:40:01.5,-44.42,-102
00:40:01.5,-45.35,-101
00:40:01.5,-43.59,-104
00:40:01.5,-34.17,-110
00:40:01.5,-9.69,-117
00:40:01.6,24.62,-121
00:40:01.6,45.91,-127
00:40:01.6,51.2,-129
00:40:01.6,53.33,-129
00:40:01.7,51.88,-127
00:40:01.7,49.72,-126
00:40:01.7,47.24,-125
00:40:01.7,39.52,-123
00:40:01.7,30.14,-123
00:40:01.7,15.16,-121
00:40:01.8,10.99,-118
00:40:01.8,7.34,-116
00:40:01.8,3.42,-114
00:40:01.8,-2.8,-113
00:40:01.8,-6.02,-113
00:40:01.9,-8.76,-114
00:40:01.9,-16.46,-114
00:40:01.9,16.42,-113
00:40:01.9,139.01,-112
00:40:01.9,187.3,-111
00:40:02,26.86,-107
00:40:02,-87.25,-106
00:40:02,-87.02,-106
00:40:02,-80.68,-107
00:40:02,-69.76,-107
00:40:02.1,-58.16,-105
00:40:02.1,-46.53,-104
00:40:02.1,-37.19,-102
00:40:02.1,-35.24,-101
00:40:02.1,-38.26,-103
00:40:02.2,-30.44,-105
00:40:02.2,-8.85,-110
00:40:02.2,20.25,-114
00:40:02.2,35.74,-118
00:40:02.2,47.82,-121
00:40:02.3,50.56,-122
00:40:02.3,47.4,-123
00:40:02.3,45,-124
00:40:02.3,40.94,-124
00:40:02.3,30.66,-123
00:40:02.4,21.32,-120
00:40:02.4,16.29,-118
00:40:02.4,9.3,-116
00:40:02.4,3.08,-115
00:40:02.4,-0.2,-115
00:40:02.5,3.61,-116
00:40:02.5,7,-116
00:40:02.5,5.67,-114
00:40:02.5,-0.43,-115
00:40:02.5,-11.57,-113
00:40:02.6,-16.15,-112
00:40:02.6,-10.89,-110
00:40:02.6,-9.93,-106
00:40:02.6,-6.55,-104
00:40:02.6,48.3,-103
00:40:02.7,165.2,-104
00:40:02.7,52.02,-102
00:40:02.7,-117.18,-102
00:40:02.7,-125.53,-100
00:40:02.8,-109.82,-99
00:40:02.8,-90.66,-99
00:40:02.8,-76.45,-97
00:40:02.8,-71.37,-97
00:40:02.8,-60.84,-97
00:40:02.8,-51.1,-98
00:40:02.9,-36.92,-101
00:40:02.9,-20.22,-106
00:40:02.9,-11.66,-112
00:40:02.9,-8.82,-118
00:40:02.9,-1.36,-121
00:40:03,15.86,-124
00:40:03,36.09,-127
00:40:03,45.53,-131
00:40:03,48.33,-135
00:40:03.1,43.89,-135
00:40:03.1,32.93,-134
00:40:03.1,24.41,-130
00:40:03.1,23.57,-126
00:40:03.1,22.94,-122
00:40:03.2,23.91,-122
00:40:03.2,29.82,-122
00:40:03.2,43.98,-121
00:40:03.2,-50.76,-120
00:40:03.2,-267.59,-119
00:40:03.2,-228.72,-116
00:40:03.3,-43.28,-113
00:40:03.3,25.45,-112
00:40:03.3,41.9,-112
00:40:03.3,152.36,-111
00:40:03.3,202.72,-109
00:40:03.3,188.4,-108
00:40:03.4,174.9,-107
00:40:03.4,168.25,-109
00:40:03.4,164.1,-107
00:40:03.4,157.1,-105
00:40:03.5,140.15,-102
00:40:03.5,105.48,-103
00:40:03.5,61.56,-104
00:40:03.5,23.35,-105
00:40:03.5,-18.1,-104
00:40:03.5,-50.48,-101
00:40:03.6,-74.98,-101
00:40:03.6,-91.06,-100
00:40:03.6,-98.76,-101
00:40:03.6,-97.71,-101
00:40:03.7,-93.71,-101
00:40:03.7,-88.91,-100
00:40:03.7,-83.66,-98
00:40:03.7,-76.81,-98
00:40:03.7,-69.31,-97
00:40:03.8,-57.86,-98
00:40:03.8,-42.18,-98
00:40:03.8,-31.74,-99
00:40:03.8,-26.84,-99
00:40:03.9,-24.28,-98
00:40:03.9,-21.52,-99
00:40:03.9,-16.71,-99
00:40:03.9,-9.75,-98
00:40:03.9,-5.04,-97
00:40:03.9,-2,-97
00:40:04,-0.22,-97
00:40:04,1.41,-96
00:40:04,2.32,-95
00:40:04,7.77,-95
00:40:04,76.45,-94
00:40:04,209.8,-94
00:40:04.1,109.08,-94
00:40:04.1,-67.92,-93
00:40:04.1,-88.87,-92
00:40:04.1,-79.18,-92
00:40:04.2,-64.52,-91
00:40:04.2,-49.27,-91
00:40:04.2,-34.64,-91
00:40:04.2,-29.43,-93
00:40:04.3,-25.37,-96
00:40:04.3,-22.26,-100
00:40:04.3,-19.93,-106
00:40:04.3,-16.73,-113
00:40:04.3,-8.44,-120
00:40:04.3,13.46,-125
00:40:04.4,32.18,-127
00:40:04.4,37.83,-129
00:40:04.4,43.55,-132
00:40:04.4,45.92,-134
00:40:04.4,46.82,-137
00:40:04.5,44.82,-134
00:40:04.5,38.54,-131
00:40:04.5,39.26,-129
00:40:04.5,-9.72,-126
00:40:04.6,-247.75,-125
00:40:04.6,-266.25,-125
00:40:04.6,-212.96,-125
00:40:04.6,24.81,-124
00:40:04.6,226.8,-122
00:40:04.6,293.83,-118
00:40:04.7,278.06,-116
00:40:04.7,253.13,-116
00:40:04.7,227.12,-114
00:40:04.7,210.07,-111
00:40:04.8,197.91,-109
00:40:04.8,182.82,-109
00:40:04.8,152.84,-110
00:40:04.8,104.99,-110
00:40:04.8,43.96,-107
00:40:04.9,-15.45,-105
00:40:04.9,-63.02,-106
00:40:04.9,-113.1,-105
00:40:04.9,-154.02,-106
00:40:04.9,-174.8,-104
00:40:04.9,-172.72,-102
00:40:05,-166.51,-100
00:40:05,-152.05,-100
00:40:05,-134.1,-100
00:40:05,-116.97,-99
00:40:05.1,-102.12,-97
00:40:05.1,-89.68,-97
00:40:05.1,-72.76,-95
00:40:05.1,-53.28,-95
00:40:05.1,-35.66,-95
00:40:05.1,-28.77,-96
00:40:05.1,-26.57,-96
00:40:05.2,-22.31,-96
00:40:05.2,-16.57,-98
00:40:05.2,-3.03,-98
00:40:05.2,10.65,-98
00:40:05.2,17.57,-98
00:40:05.3,21.85,-96
00:40:05.3,21.93,-97
00:40:05.3,18.92,-97
00:40:05.3,18.17,-96
00:40:05.4,18.43,-97
00:40:05.4,18.07,-95
00:40:05.4,19.64,-95
00:40:05.4,60.71,-95
00:40:05.5,176.58,-95
00:40:05.5,117.74,-96
00:40:05.5,-37.24,-97
00:40:05.5,-69.06,-98
00:40:05.5,-60.96,-98
00:40:05.5,-49.87,-99
00:40:05.5,-36.65,-99
00:40:05.6,-18.36,-98
00:40:05.6,-10.97,-99
00:40:05.6,-9.8,-100
00:40:05.6,-9.88,-104
00:40:05.7,-13.78,-111
00:40:05.7,-19.17,-118
00:40:05.7,-7.42,-123
00:40:05.7,15.31,-130
00:40:05.8,31.43,-135
00:40:05.8,33.24,-138
00:40:05.8,35.47,-140
00:40:05.8,38.96,-140
00:40:05.8,39.41,-136
00:40:05.8,39.28,-133
00:40:05.8,39.21,-131
00:40:05.9,38.34,-131
00:40:05.9,36.69,-131
00:40:05.9,23.83,-130
00:40:06,-31.61,-130
00:40:06,-109.37,-127
00:40:06,-145.78,-125
00:40:06,-27.96,-125
00:40:06,134.14,-124
00:40:06,68.81,-121
00:40:06,75.15,-120
00:40:06.1,70.84,-117
00:40:06.1,63.81,-114
00:40:06.1,62.82,-114
00:40:06.1,63.67,-114
00:40:06.1,66.05,-113
00:40:06.2,67.47,-112
00:40:06.2,65.31,-110
00:40:06.2,56.33,-109
00:40:06.2,34.46,-108
00:40:06.3,1.88,-106
00:40:06.3,-30.81,-107
00:40:06.3,-55.85,-109
00:40:06.3,-66.71,-109
00:40:06.3,-64.3,-110
00:40:06.3,-59.92,-107
00:40:06.4,-50.91,-107
00:40:06.4,-39.95,-106
00:40:06.4,-29.96,-106
00:40:06.4,-23.8,-106
00:40:06.5,-18.38,-106
00:40:06.5,-15.05,-104
00:40:06.5,-15.49,-102
00:40:06.5,-15.32,-102
00:40:06.5,-13.42,-102
00:40:06.5,-8.94,-102
00:40:06.6,-1.63,-102
00:40:06.6,6.23,-103
00:40:06.6,14.08,-103
00:40:06.6,19.21,-102
00:40:06.7,19.62,-99
00:40:06.7,17.96,-98
00:40:06.7,6.94,-97
00:40:06.7,38.91,-97
00:40:06.7,157.65,-97
00:40:06.7,175.58,-97
00:40:06.8,23.8,-99
00:40:06.8,-98.32,-99
00:40:06.8,-99.88,-100
00:40:06.8,-92.14,-102
00:40:06.9,-80.77,-101
00:40:06.9,-67.69,-99
00:40:06.9,-58.66,-98
00:40:06.9,-55.21,-98
00:40:06.9,-43.87,-101
00:40:06.9,-34.05,-107
00:40:07,-38.33,-117
00:40:07,-32.54,-126
00:40:07,-15.58,-131
00:40:07,6.87,-135
00:40:07,20.39,-139
00:40:07.1,36.38,-141
00:40:07.1,49.32,-142
00:40:07.1,44.45,-142
00:40:07.1,31.36,-141
00:40:07.2,22.05,-139
00:40:07.2,25.08,-136
00:40:07.2,32.69,-133
00:40:07.2,0.77,-131
00:40:07.2,-226.36,-129
00:40:07.2,-261.5,-126
00:40:07.3,-240.66,-127
00:40:07.3,-11.85,-128
00:40:07.3,246.08,-125
00:40:07.3,302.88,-123
00:40:07.4,291.68,-121
00:40:07.4,268.61,-120
00:40:07.4,239.72,-121
00:40:07.4,214.06,-119
00:40:07.4,199.38,-116
00:40:07.5,185.99,-114
00:40:07.5,157.85,-112
00:40:07.5,113.68,-111
00:40:07.5,57.77,-110
00:40:07.6,-3.48,-107
00:40:07.6,-61.67,-105
00:40:07.6,-112.42,-104
00:40:07.6,-145.44,-104
00:40:07.6,-166.05,-103
00:40:07.7,-172.68,-103
00:40:07.7,-168.78,-100
00:40:07.7,-158.03,-101
00:40:07.7,-143.97,-101
00:40:07.7,-125.94,-101
00:40:07.7,-101.78,-100
00:40:07.7,-86.79,-99
00:40:07.8,-76.54,-98
00:40:07.8,-63.56,-98
00:40:07.8,-46.72,-97
00:40:07.8,-39.21,-97
00:40:07.8,-30.2,-97
00:40:07.9,-20.5,-99
00:40:07.9,-11.03,-98
00:40:07.9,-2.49,-99
00:40:07.9,0.18,-100
00:40:08,2.87,-100
00:40:08,5.88,-99
00:40:08,11.39,-97
00:40:08,17.6,-97
00:40:08.1,19.92,-96
00:40:08.1,22.54,-95
00:40:08.1,23.14,-95
00:40:08.1,23.73,-95
00:40:08.1,24.36,-95
00:40:08.1,24.77,-95
00:40:08.2,25.96,-94
00:40:08.2,26.22,-94
00:40:08.2,28.16,-95
00:40:08.2,29.58,-95
00:40:08.2,28.8,-96
00:40:08.2,26.92,-97
00:40:08.3,30.43,-97
00:40:08.3,87.12,-97
00:40:08.3,187.47,-98
00:40:08.3,77.13,-98
00:40:08.4,-56.79,-96
00:40:08.4,-78.48,-97
00:40:08.4,-73.58,-96
00:40:08.4,-62.71,-95
00:40:08.4,-44.87,-96
00:40:08.4,-35.07,-97
00:40:08.5,-35.03,-98
00:40:08.5,-31.53,-101
00:40:08.5,-27.06,-109
00:40:08.5,-22.84,-117
00:40:08.5,-21.98,-125
00:40:08.6,-18.77,-131
00:40:08.6,-11.18,-134
00:40:08.6,-3.02,-138
00:40:08.6,6.77,-142
00:40:08.7,19.08,-144
00:40:08.7,28.1,-145
00:40:08.7,34.72,-145
00:40:08.7,38.24,-141
00:40:08.7,33.83,-138
00:40:08.8,32.96,-135
00:40:08.8,30.08,-133
00:40:08.8,-99.83,-132
00:40:08.8,-263.75,-132
00:40:08.9,-248.86,-132
00:40:08.9,-68.91,-131
00:40:08.9,67.7,-128
00:40:08.9,175.61,-126
00:40:08.9,268.11,-124
00:40:08.9,275.29,-124
00:40:09,262.72,-122
00:40:09,243.33,-119
00:40:09,218.56,-117
00:40:09,187.66,-116
00:40:09,157.76,-116
00:40:09,127.89,-115
00:40:09.1,93.19,-114
00:40:09.1,47.68,-111
00:40:09.1,-5.15,-111
00:40:09.1,-65.2,-110
00:40:09.2,-114.78,-111
00:40:09.2,-152.53,-111
00:40:09.2,-171.83,-107
00:40:09.2,-174.89,-107
00:40:09.2,-167.81,-109
00:40:09.2,-152.54,-109
00:40:09.3,-129.9,-107
00:40:09.3,-103.86,-105
00:40:09.3,-84.72,-103
00:40:09.4,-76.91,-104
00:40:09.4,-72.15,-102
00:40:09.4,-60.66,-103
00:40:09.4,-41.5,-102
00:40:09.4,-23.2,-102
00:40:09.4,-15.16,-100
00:40:09.5,-11.44,-98
00:40:09.5,-8.26,-98
00:40:09.5,-5.9,-98
00:40:09.5,-2.69,-99
00:40:09.5,1.81,-99
00:40:09.5,4.69,-98
00:40:09.6,47.38,-98
00:40:09.6,169.92,-98
00:40:09.6,187.64,-100
00:40:09.6,46.31,-101
00:40:09.7,-82.34,-101
00:40:09.7,-68.97,-101
00:40:09.7,-49.55,-100
00:40:09.7,-31.75,-100
00:40:09.7,-19.07,-100
00:40:09.7,-17.69,-101
00:40:09.8,-21.39,-102
00:40:09.8,-23.01,-106
00:40:09.8,-21.87,-113
00:40:09.8,-23.23,-119
00:40:09.8,-16.16,-126
00:40:09.9,5.19,-133
00:40:09.9,23.91,-139
00:40:09.9,26.86,-142
00:40:10,30.97,-147
00:40:10,32.42,-147
00:40:10,32.26,-146
00:40:10,37.04,-144
00:40:10,41.35,-141
00:40:10,41.65,-141
00:40:10,36.81,-139
00:40:10.1,30.16,-138
00:40:10.1,20.59,-139
00:40:10.1,-10.83,-137
00:40:10.2,-81.18,-134
00:40:10.2,-96.98,-131
00:40:10.2,-84.9,-130
00:40:10.2,14.98,-131
00:40:10.2,101.84,-129
00:40:10.2,99.27,-126
00:40:10.2,99.12,-124
00:40:10.3,100.15,-121
00:40:10.3,102.3,-118
00:40:10.3,101.85,-118
00:40:10.4,98.24,-119
00:40:10.4,90.71,-118
00:40:10.4,79.66,-116
00:40:10.4,66.21,-112
00:40:10.4,44.2,-111
00:40:10.4,17.37,-111
00:40:10.5,-13.88,-114
00:40:10.5,-38.65,-116
00:40:10.5,-62.66,-118
00:40:10.5,-72.8,-118
00:40:10.6,-71.65,-120
00:40:10.6,-65.78,-121
00:40:10.6,-61.35,-120
00:40:10.6,-57.78,-119
00:40:10.6,-53.3,-117
00:40:10.6,-47.93,-115
00:40:10.6,-36.9,-113
00:40:10.7,-31.42,-111
00:40:10.7,-31.73,-109
00:40:10.7,-30.38,-111
00:40:10.8,-28.59,-111
00:40:10.8,-26.36,-110
00:40:10.8,-20.12,-109
00:40:10.8,-11.63,-105
00:40:10.8,-5.53,-104
00:40:10.8,-9.04,-104
00:40:10.9,33.42,-104
00:40:10.9,179.94,-105
00:40:10.9,179.06,-104
00:40:10.9,62.96,-103
00:40:11,-94.97,-101
00:40:11,-87.45,-101
00:40:11,-75.85,-102
00:40:11,-61.83,-104
00:40:11,-54.56,-104
00:40:11,-48.99,-102
00:40:11,-43.67,-102
00:40:11.1,-36.62,-102
00:40:11.1,-25.84,-107
00:40:11.1,-16.65,-116
00:40:11.1,-9.59,-123
00:40:11.2,3.23,-129
00:40:11.2,18.66,-136
00:40:11.2,38.81,-139
00:40:11.2,51.36,-139
00:40:11.2,60.43,-141
00:40:11.2,54.05,-140
00:40:11.3,39.03,-140
00:40:11.3,24.88,-139
00:40:11.3,14.14,-136
00:40:11.3,14.69,-135
00:40:11.4,1.33,-134
00:40:11.4,-176.22,-130
00:40:11.4,-262.32,-128
00:40:11.4,-242.11,-129
00:40:11.4,-78.81,-130
00:40:11.4,128.84,-128
00:40:11.5,265.7,-125
00:40:11.5,285.64,-122
00:40:11.5,268.01,-119
00:40:11.6,243.7,-117
00:40:11.6,222.68,-115
00:40:11.6,203.65,-112
00:40:11.6,182.14,-109
00:40:11.6,161.26,-107
00:40:11.6,132.25,-109
00:40:11.6,90.48,-108
00:40:11.7,40.14,-107
00:40:11.7,-19.78,-106
00:40:11.7,-83.67,-105
00:40:11.7,-136.7,-105
00:40:11.7,-162.78,-107
00:40:11.8,-166.83,-105
00:40:11.8,-160.97,-101
00:40:11.8,-147.2,-99
00:40:11.8,-135.26,-98
00:40:11.8,-122.76,-98
00:40:11.9,-110.47,-98
00:40:11.9,-99.71,-98
00:40:11.9,-91.02,-98
00:40:11.9,-78.4,-98
00:40:12,-61.87,-95
00:40:12,-45.23,-94
00:40:12,-28.21,-93
00:40:12,-15.35,-92
00:40:12,-6.46,-92
00:40:12.1,2.34,-92
00:40:12.1,11.71,-92
00:40:12.1,18.54,-92
00:40:12.1,18.24,-91
00:40:12.1,16.66,-92
00:40:12.1,20.59,-93
00:40:12.2,25.87,-92
00:40:12.2,33.74,-93
00:40:12.2,37.25,-94
00:40:12.2,35.22,-94
00:40:12.3,31.9,-93
00:40:12.3,28.97,-92
00:40:12.3,29.82,-92
00:40:12.3,29.88,-93
00:40:12.3,30.42,-93
00:40:12.3,30.08,-94
00:40:12.4,29.22,-93
00:40:12.4,28.71,-92
00:40:12.4,28.77,-91
00:40:12.4,28.45,-91
00:40:12.5,28.72,-91
00:40:12.5,28.43,-91
00:40:12.5,25.19,-91
00:40:12.5,19.53,-91
00:40:12.5,79.73,-91
00:40:12.5,177.88,-93
00:40:12.6,111.24,-94
00:40:12.6,-43.57,-94
00:40:12.6,-82.61,-95
00:40:12.6,-77.13,-95
00:40:12.7,-74.16,-94
00:40:12.7,-72.68,-93
00:40:12.7,-62.53,-93
00:40:12.7,-44.16,-94
00:40:12.7,-31.31,-95
00:40:12.7,-28.44,-101
00:40:12.8,-30.18,-109
00:40:12.8,-28.51,-119
00:40:12.8,-19.67,-127
00:40:12.9,-2.66,-135
00:40:12.9,5.42,-140
00:40:12.9,7.57,-144
00:40:12.9,13.15,-148
00:40:12.9,22.61,-148
00:40:12.9,33.49,-146
00:40:13,35.06,-143
00:40:13,33.28,-141
00:40:13,33.93,-141
00:40:13,34.57,-141
00:40:13,-13.41,-139
00:40:13.1,-247.78,-137
00:40:13.1,-266.24,-137
00:40:13.1,-100.17,-137
00:40:13.1,16.29,-136
00:40:13.1,130.9,-132
00:40:13.1,242.95,-128
00:40:13.2,241.15,-125
00:40:13.2,227.43,-123
00:40:13.2,208.16,-124
00:40:13.2,187.86,-121
00:40:13.2,174.03,-117
00:40:13.3,163.82,-116
00:40:13.3,144.42,-117
00:40:13.3,108.84,-115
00:40:13.3,53.04,-113
00:40:13.4,-7.52,-112
00:40:13.4,-60.37,-112
00:40:13.4,-107.37,-112
00:40:13.4,-140.96,-110
00:40:13.4,-151.5,-110
00:40:13.4,-147.92,-108
00:40:13.5,-139.93,-105
00:40:13.5,-126.4,-104
00:40:13.5,-112.33,-103
00:40:13.6,-100.66,-104
00:40:13.6,-87.92,-102
00:40:13.6,-72.19,-100
00:40:13.6,-55.49,-97
00:40:13.6,-40.39,-97
00:40:13.6,-29.79,-96
00:40:13.6,-23.56,-96
00:40:13.7,-18.79,-98
00:40:13.7,-9.74,-99
00:40:13.7,0.65,-99
00:40:13.7,13.25,-99
00:40:13.7,17,-98
00:40:13.8,17,-99
00:40:13.8,16.66,-98
00:40:13.8,15.94,-98
00:40:13.8,15.19,-97
00:40:13.8,14.9,-98
00:40:13.9,15.57,-98
00:40:13.9,18.55,-98
00:40:13.9,22.46,-96
00:40:13.9,22.69,-94
00:40:13.9,22.48,-94
00:40:14,22.36,-94
00:40:14,22.49,-95
00:40:14,22.94,-96
00:40:14,22.77,-96
00:40:14.1,19.46,-97
00:40:14.1,22.3,-96
00:40:14.1,80.92,-98
00:40:14.1,195.63,-98
00:40:14.1,53.52,-98
00:40:14.1,-95.18,-97
00:40:14.2,-98.77,-98
00:40:14.2,-89.29,-96
00:40:14.2,-73.46,-97
00:40:14.2,-60.11,-97
00:40:14.3,-56.02,-97
00:40:14.3,-53.42,-96
00:40:14.3,-45.79,-99
00:40:14.3,-36.63,-105
00:40:14.4,-36.26,-114
00:40:14.4,-33.84,-125
00:40:14.4,-24.63,-132
00:40:14.4,-2.75,-140
00:40:14.4,21.28,-144
00:40:14.4,34.72,-148
00:40:14.4,38.3,-151
00:40:14.5,42.22,-152
00:40:14.5,39.27,-151
00:40:14.5,35.68,-152
00:40:14.5,33.16,-150
00:40:14.6,30.23,-148
00:40:14.6,34.26,-146
00:40:14.6,-17.53,-141
00:40:14.6,-243.8,-140
00:40:14.6,-258.38,-140
00:40:14.6,-240.43,-139
00:40:14.7,0.66,-138
00:40:14.7,272.07,-136
00:40:14.7,311.59,-134
00:40:14.7,287,-130
00:40:14.8,257.86,-127
00:40:14.8,232.81,-126
00:40:14.8,215.31,-124
00:40:14.8,202.21,-121
00:40:14.8,184.66,-118
00:40:14.8,162.95,-116
00:40:14.9,120.68,-117
00:40:14.9,55.18,-117
00:40:14.9,-16.32,-115
00:40:14.9,-80.95,-113
00:40:14.9,-130.29,-111
00:40:15,-159.05,-111
00:40:15,-170.05,-110
00:40:15,-171.98,-108
00:40:15,-166.95,-105
00:40:15.1,-155.21,-104
00:40:15.1,-137.59,-104
00:40:15.1,-119.56,-105
00:40:15.1,-100.57,-102
00:40:15.1,-82.08,-101
00:40:15.1,-64.02,-99
00:40:15.2,-45.38,-98
00:40:15.2,-33.57,-98
00:40:15.2,-28.61,-98
00:40:15.2,-26.14,-101
00:40:15.3,-21.25,-102
00:40:15.3,-15.84,-102
00:40:15.3,-9.85,-100
00:40:15.3,-5.21,-100
00:40:15.3,2.85,-99
00:40:15.4,10.86,-99
00:40:15.4,23.07,-97
00:40:15.4,110.42,-97
00:40:15.4,222.09,-98
00:40:15.4,127.81,-98
00:40:15.4,-50.75,-97
00:40:15.5,-76.62,-97
00:40:15.5,-71.46,-96
00:40:15.5,-63.3,-95
00:40:15.5,-53.27,-95
00:40:15.6,-36.56,-95
00:40:15.6,-22.26,-94
00:40:15.6,-14.6,-96
00:40:15.6,-11.29,-99
00:40:15.6,-14.03,-106
00:40:15.6,-15.74,-115
00:40:15.7,-12.46,-124
00:40:15.7,-1.54,-131
00:40:15.7,16.21,-138
00:40:15.7,35.06,-142
00:40:15.7,47.28,-144
00:40:15.8,53.04,-144
00:40:15.8,45.83,-142
00:40:15.8,35.84,-142
00:40:15.8,31.67,-140
00:40:15.8,29.31,-138
00:40:15.9,26.19,-138
00:40:15.9,22.71,-136
00:40:15.9,23.27,-134
00:40:15.9,24.17,-131
00:40:16,24.42,-132
00:40:16,23.59,-132
00:40:16,21.48,-130
00:40:16,18.2,-128
00:40:16,14.99,-125
00:40:16,13.33,-122
00:40:16.1,11,-119
00:40:16.1,59.41,-118
00:40:16.1,175.7,-117
00:40:16.1,135.24,-118
00:40:16.2,-36.46,-115
00:40:16.2,-93.81,-113
00:40:16.2,-82.67,-109
00:40:16.2,-73.58,-107
00:40:16.2,-67.11,-108
00:40:16.2,-57.58,-108
00:40:16.3,-46.4,-108
00:40:16.3,-44.25,-108
00:40:16.3,-45.51,-107
00:40:16.3,-42.74,-107
00:40:16.4,-36.95,-110
00:40:16.4,-23.18,-117
00:40:16.4,-6.12,-123
00:40:16.4,12.22,-128
00:40:16.4,27.12,-131
00:40:16.4,27.73,-134
00:40:16.5,24.85,-134
00:40:16.5,24.49,-134
00:40:16.5,24.34,-134
00:40:16.5,22.78,-132
00:40:16.6,20.55,-131
00:40:16.6,18.33,-128
00:40:16.6,16.42,-124
00:40:16.6,13.79,-123
00:40:16.6,13.11,-121
00:40:16.6,12.45,-122
00:40:16.7,6.59,-123
00:40:16.7,59.92,-122
00:40:16.7,177.68,-120
00:40:16.7,130.72,-117
00:40:16.7,-37.15,-115
00:40:16.8,-84.32,-113
00:40:16.8,-73,-113
00:40:16.8,-65.02,-112
00:40:16.8,-59.66,-110
00:40:16.8,-55.07,-110
00:40:16.9,-48.07,-108
00:40:16.9,-41.49,-107
00:40:16.9,-34.13,-105
00:40:16.9,-29,-105
00:40:17,-23.82,-107
00:40:17,-20.86,-111
00:40:17,-18.69,-115
00:40:17,-11.64,-119
00:40:17,8.63,-122
00:40:17,30.45,-126
00:40:17.1,32.35,-129
00:40:17.1,29.28,-131
00:40:17.1,24.31,-131
00:40:17.1,17.38,-130
00:40:17.2,9.61,-126
00:40:17.2,6.99,-123
00:40:17.2,4.27,-122
00:40:17.2,1.63,-121
00:40:17.2,-0.25,-120
00:40:17.2,-0.53,-120
00:40:17.3,-0.38,-121
00:40:17.3,0.4,-119
00:40:17.3,2.2,-117
00:40:17.3,47.39,-115
00:40:17.4,207.69,-114
00:40:17.4,159.84,-112
00:40:17.4,-37.55,-109
00:40:17.4,-103.78,-107
00:40:17.4,-98.67,-105
00:40:17.4,-88.38,-104
00:40:17.4,-72.72,-103
