Time,II,PLETH
09:47:44.97,0.215,-0.372
09:47:44.972,0.179,-0.372
09:47:44.974,0.179,-0.372
09:47:44.976,0.179,-0.383
09:47:44.978,0.179,-0.383
09:47:44.98,0.179,-0.383
09:47:44.982,0.215,-0.383
09:47:44.984,0.215,-0.389
09:47:44.986,0.215,-0.389
09:47:44.988,0.215,-0.389
09:47:44.99,0.215,-0.389
09:47:44.992,0.215,-0.399
09:47:44.994,0.215,-0.399
09:47:44.996,0.215,-0.399
09:47:44.998,0.179,-0.399
09:47:45,0.144,-0.405
09:47:45.002,0.108,-0.405
09:47:45.004,0.108,-0.405
09:47:45.006,0.073,-0.405
09:47:45.008,0.073,-0.410
09:47:45.01,0.037,-0.410
09:47:45.012,0.037,-0.410
09:47:45.014,0.037,-0.410
09:47:45.016,0.003,-0.405
09:47:45.018,0.003,-0.405
09:47:45.02,0.003,-0.405
09:47:45.022,0.003,-0.405
09:47:45.024,0.003,-0.405
09:47:45.026,0.037,-0.405
09:47:45.028,0.037,-0.405
09:47:45.03,0.037,-0.405
09:47:45.032,0.037,-0.399
09:47:45.034,0.003,-0.399
09:47:45.036,0.003,-0.399
09:47:45.038,0.003,-0.399
09:47:45.04,0.003,-0.378
09:47:45.042,0.003,-0.378
09:47:45.044,0.003,-0.378
09:47:45.046,0.003,-0.378
09:47:45.048,0.003,-0.350
09:47:45.05,0.003,-0.350
09:47:45.052,0.003,-0.350
09:47:45.054,-0.032,-0.350
09:47:45.056,-0.032,-0.318
09:47:45.058,-0.032,-0.318
09:47:45.06,0.003,-0.318
09:47:45.062,0.003,-0.318
09:47:45.064,0.003,-0.291
09:47:45.066,0.003,-0.291
09:47:45.068,0.003,-0.291
09:47:45.07,0.003,-0.291
09:47:45.072,0.003,-0.259
09:47:45.074,0.003,-0.259
09:47:45.076,0.003,-0.259
09:47:45.078,0.003,-0.259
09:47:45.08,0.003,-0.216
09:47:45.082,0.003,-0.216
09:47:45.084,0.003,-0.216
09:47:45.086,0.003,-0.216
09:47:45.088,0.003,-0.178
09:47:45.09,0.003,-0.178
09:47:45.092,0.037,-0.178
09:47:45.094,0.108,-0.178
09:47:45.096,0.179,-0.145
09:47:45.098,0.215,-0.145
09:47:45.1,0.286,-0.145
09:47:45.102,0.321,-0.145
09:47:45.104,0.357,-0.124
09:47:45.106,0.393,-0.124
09:47:45.108,0.464,-0.124
09:47:45.11,0.499,-0.124
09:47:45.112,0.569,-0.092
09:47:45.114,0.640,-0.092
09:47:45.116,0.675,-0.092
09:47:45.118,0.711,-0.092
09:47:45.12,0.782,-0.086
09:47:45.122,0.817,-0.086
09:47:45.124,0.889,-0.086
09:47:45.126,0.995,-0.086
09:47:45.128,1.100,-0.075
09:47:45.13,1.171,-0.075
09:47:45.132,1.278,-0.075
09:47:45.134,1.420,-0.075
09:47:45.136,1.525,-0.075
09:47:45.138,1.596,-0.075
09:47:45.14,1.632,-0.075
09:47:45.142,1.703,-0.075
09:47:45.144,1.738,-0.092
09:47:45.146,1.809,-0.092
09:47:45.148,1.880,-0.092
09:47:45.15,1.916,-0.092
09:47:45.152,1.916,-0.102
09:47:45.154,1.845,-0.102
09:47:45.156,1.632,-0.102
09:47:45.158,1.313,-0.102
09:47:45.16,0.995,-0.118
09:47:45.162,0.711,-0.118
09:47:45.164,0.464,-0.118
09:47:45.166,0.250,-0.118
09:47:45.168,0.108,-0.141
09:47:45.17,0.003,-0.141
09:47:45.172,-0.032,-0.141
09:47:45.174,-0.103,-0.141
09:47:45.176,-0.139,-0.172
09:47:45.178,-0.174,-0.172
09:47:45.18,-0.210,-0.172
09:47:45.182,-0.210,-0.172
09:47:45.184,-0.246,-0.200
09:47:45.186,-0.246,-0.200
09:47:45.188,-0.281,-0.200
09:47:45.19,-0.317,-0.200
09:47:45.192,-0.317,-0.232
09:47:45.194,-0.352,-0.232
09:47:45.196,-0.352,-0.232
09:47:45.198,-0.352,-0.232
09:47:45.2,-0.352,-0.265
09:47:45.202,-0.352,-0.265
09:47:45.204,-0.352,-0.265
09:47:45.206,-0.352,-0.265
09:47:45.208,-0.388,-0.302
09:47:45.21,-0.388,-0.302
09:47:45.212,-0.388,-0.302
09:47:45.214,-0.423,-0.302
09:47:45.216,-0.459,-0.324
09:47:45.218,-0.459,-0.324
09:47:45.22,-0.459,-0.324
09:47:45.222,-0.459,-0.324
09:47:45.224,-0.459,-0.345
09:47:45.226,-0.459,-0.345
09:47:45.228,-0.459,-0.345
09:47:45.23,-0.459,-0.345
09:47:45.232,-0.459,-0.366
09:47:45.234,-0.459,-0.366
09:47:45.236,-0.459,-0.366
09:47:45.238,-0.459,-0.366
09:47:45.24,-0.459,-0.378
09:47:45.242,-0.459,-0.378
09:47:45.244,-0.494,-0.378
09:47:45.246,-0.494,-0.378
09:47:45.248,-0.528,-0.389
09:47:45.25,-0.528,-0.389
09:47:45.252,-0.494,-0.389
09:47:45.254,-0.494,-0.389
09:47:45.256,-0.528,-0.389
09:47:45.258,-0.528,-0.389
09:47:45.26,-0.564,-0.389
09:47:45.262,-0.564,-0.389
09:47:45.264,-0.564,-0.389
09:47:45.266,-0.564,-0.389
09:47:45.268,-0.564,-0.389
09:47:45.27,-0.564,-0.389
09:47:45.272,-0.564,-0.389
09:47:45.274,-0.564,-0.389
09:47:45.276,-0.564,-0.389
09:47:45.278,-0.564,-0.389
09:47:45.28,-0.564,-0.399
09:47:45.282,-0.564,-0.399
09:47:45.284,-0.564,-0.399
09:47:45.286,-0.564,-0.399
09:47:45.288,-0.564,-0.394
09:47:45.29,-0.564,-0.394
09:47:45.292,-0.599,-0.394
09:47:45.294,-0.599,-0.394
09:47:45.296,-0.599,-0.389
09:47:45.298,-0.599,-0.389
09:47:45.3,-0.564,-0.389
09:47:45.302,-0.564,-0.389
09:47:45.304,-0.528,-0.394
09:47:45.306,-0.528,-0.394
09:47:45.308,-0.528,-0.394
09:47:45.31,-0.494,-0.394
09:47:45.312,-0.494,-0.389
09:47:45.314,-0.459,-0.389
09:47:45.316,-0.459,-0.389
09:47:45.318,-0.423,-0.389
09:47:45.32,-0.388,-0.383
09:47:45.322,-0.388,-0.383
09:47:45.324,-0.388,-0.383
09:47:45.326,-0.388,-0.383
09:47:45.328,-0.352,-0.378
09:47:45.33,-0.352,-0.378
09:47:45.332,-0.352,-0.378
09:47:45.334,-0.352,-0.378
09:47:45.336,-0.317,-0.383
09:47:45.338,-0.317,-0.383
09:47:45.34,-0.281,-0.383
09:47:45.342,-0.246,-0.383
09:47:45.344,-0.246,-0.378
09:47:45.346,-0.246,-0.378
09:47:45.348,-0.210,-0.378
09:47:45.35,-0.210,-0.378
09:47:45.352,-0.174,-0.378
09:47:45.354,-0.174,-0.378
09:47:45.356,-0.139,-0.378
09:47:45.358,-0.103,-0.378
09:47:45.36,-0.068,-0.389
09:47:45.362,-0.103,-0.389
09:47:45.364,-0.103,-0.389
09:47:45.366,-0.068,-0.389
09:47:45.368,-0.068,-0.389
09:47:45.37,-0.032,-0.389
09:47:45.372,-0.032,-0.389
09:47:45.374,-0.032,-0.389
09:47:45.376,0.003,-0.383
09:47:45.378,0.003,-0.383
09:47:45.38,0.003,-0.383
09:47:45.382,0.003,-0.383
09:47:45.384,0.003,-0.389
09:47:45.386,0.003,-0.389
09:47:45.388,0.003,-0.389
09:47:45.39,0.003,-0.389
09:47:45.392,0.003,-0.394
09:47:45.394,0.003,-0.394
09:47:45.396,0.003,-0.394
09:47:45.398,0.003,-0.394
09:47:45.4,-0.032,-0.394
09:47:45.402,0.003,-0.394
09:47:45.404,0.003,-0.394
09:47:45.406,0.003,-0.394
09:47:45.408,-0.032,-0.389
09:47:45.41,-0.032,-0.389
09:47:45.412,-0.032,-0.389
09:47:45.414,-0.032,-0.389
09:47:45.416,-0.068,-0.389
09:47:45.418,-0.068,-0.389
09:47:45.42,-0.068,-0.389
09:47:45.422,-0.068,-0.389
09:47:45.424,-0.068,-0.378
09:47:45.426,-0.068,-0.378
09:47:45.428,-0.068,-0.378
09:47:45.43,-0.068,-0.378
09:47:45.432,-0.032,-0.361
09:47:45.434,-0.032,-0.361
09:47:45.436,-0.032,-0.361
09:47:45.438,0.003,-0.361
09:47:45.44,-0.032,-0.345
09:47:45.442,-0.032,-0.345
09:47:45.444,0.003,-0.345
09:47:45.446,0.003,-0.345
09:47:45.448,0.003,-0.324
09:47:45.45,0.003,-0.324
09:47:45.452,0.003,-0.324
09:47:45.454,0.037,-0.324
09:47:45.456,0.037,-0.291
09:47:45.458,0.037,-0.291
09:47:45.46,0.037,-0.291
09:47:45.462,0.037,-0.291
09:47:45.464,0.037,-0.270
09:47:45.466,0.037,-0.270
09:47:45.468,0.037,-0.270
09:47:45.47,0.073,-0.270
09:47:45.472,0.073,-0.242
09:47:45.474,0.073,-0.242
09:47:45.476,0.073,-0.242
09:47:45.478,0.073,-0.242
09:47:45.48,0.073,-0.221
09:47:45.482,0.073,-0.221
09:47:45.484,0.073,-0.221
09:47:45.486,0.073,-0.221
09:47:45.488,0.073,-0.200
09:47:45.49,0.073,-0.200
09:47:45.492,0.073,-0.200
09:47:45.494,0.073,-0.200
09:47:49.958,0.037,0.614
09:47:49.96,0.037,0.571
09:47:49.962,0.037,0.571
09:47:49.964,0.037,0.571
09:47:49.966,0.003,0.571
09:47:49.968,0.037,0.526
09:47:49.97,0.037,0.526
09:47:49.972,0.037,0.526
09:47:49.974,0.037,0.526
09:47:49.976,0.003,0.513
09:47:49.978,0.003,0.513
09:47:49.98,0.003,0.513
09:47:49.982,0.003,0.513
09:47:49.984,0.003,0.455
09:47:49.986,0.003,0.455
09:47:49.988,0.003,0.455
09:47:49.99,0.003,0.455
09:47:49.992,-0.032,0.408
09:47:49.994,-0.032,0.408
09:47:49.996,-0.068,0.408
09:47:49.998,-0.068,0.408
09:47:50,-0.068,0.355
09:47:50.002,-0.068,0.355
09:47:50.004,-0.068,0.355
09:47:50.006,-0.068,0.355
09:47:50.008,-0.068,0.303
09:47:50.01,-0.068,0.303
09:47:50.012,-0.068,0.303
09:47:50.014,-0.068,0.303
09:47:50.016,-0.068,0.257
09:47:50.018,-0.068,0.257
09:47:50.02,-0.068,0.257
09:47:50.022,-0.068,0.257
09:47:50.024,-0.068,0.210
09:47:50.026,-0.068,0.210
09:47:50.028,-0.068,0.210
09:47:50.03,-0.068,0.210
09:47:50.032,-0.068,0.169
09:47:50.034,-0.068,0.169
09:47:50.036,-0.068,0.169
09:47:50.038,-0.068,0.169
09:47:50.04,-0.068,0.134
09:47:50.042,-0.032,0.134
09:47:50.044,-0.032,0.134
09:47:50.046,-0.032,0.134
09:47:50.048,0.003,0.099
09:47:50.05,0.003,0.099
09:47:50.052,0.003,0.099
09:47:50.054,0.003,0.099
09:47:50.056,0.003,0.064
09:47:50.058,0.037,0.064
09:47:50.06,0.037,0.064
09:47:50.062,0.037,0.064
09:47:50.064,0.037,0.035
09:47:50.066,0.037,0.035
09:47:50.068,0.037,0.035
09:47:50.07,0.003,0.035
09:47:50.072,0.003,0.024
09:47:50.074,-0.032,0.024
09:47:50.076,-0.068,0.024
09:47:50.078,-0.139,0.024
09:47:50.08,-0.210,-0.005
09:47:50.082,-0.281,-0.005
09:47:50.084,-0.352,-0.005
09:47:50.086,-0.423,-0.005
09:47:50.088,-0.494,-0.023
09:47:50.09,-0.635,-0.023
09:47:50.092,-0.848,-0.023
09:47:50.094,-1.060,-0.023
09:47:50.096,-1.237,-0.041
09:47:50.098,-1.380,-0.041
09:47:50.1,-1.451,-0.041
09:47:50.102,-1.520,-0.041
09:47:50.104,-1.556,-0.058
09:47:50.106,-1.591,-0.058
09:47:50.108,-1.591,-0.058
09:47:50.11,-1.556,-0.058
09:47:50.112,-1.556,-0.075
09:47:50.114,-1.556,-0.075
09:47:50.116,-1.520,-0.075
09:47:50.118,-1.486,-0.075
09:47:50.12,-1.380,-0.093
09:47:50.122,-1.273,-0.093
09:47:50.124,-1.166,-0.093
09:47:50.126,-1.060,-0.093
09:47:50.128,-0.955,-0.111
09:47:50.13,-0.848,-0.111
09:47:50.132,-0.777,-0.111
09:47:50.134,-0.670,-0.111
09:47:50.136,-0.599,-0.134
09:47:50.138,-0.528,-0.134
09:47:50.14,-0.459,-0.134
09:47:50.142,-0.388,-0.134
09:47:50.144,-0.352,-0.157
09:47:50.146,-0.317,-0.157
09:47:50.148,-0.246,-0.157
09:47:50.15,-0.210,-0.157
09:47:50.152,-0.210,-0.169
09:47:50.154,-0.210,-0.169
09:47:50.156,-0.210,-0.169
09:47:50.158,-0.210,-0.169
09:47:50.16,-0.174,-0.192
09:47:50.162,-0.174,-0.192
09:47:50.164,-0.174,-0.192
09:47:50.166,-0.139,-0.192
09:47:50.168,-0.139,-0.209
09:47:50.17,-0.103,-0.209
09:47:50.172,-0.068,-0.209
09:47:50.174,-0.068,-0.209
09:47:50.176,-0.032,-0.222
09:47:50.178,0.003,-0.222
09:47:50.18,0.003,-0.222
09:47:50.182,0.037,-0.222
09:47:50.184,0.073,-0.244
09:47:50.186,0.108,-0.244
09:47:50.188,0.108,-0.244
09:47:50.19,0.144,-0.244
09:47:50.192,0.144,-0.262
09:47:50.194,0.144,-0.262
09:47:50.196,0.179,-0.262
09:47:50.198,0.179,-0.262
09:47:50.2,0.179,-0.285
09:47:50.202,0.179,-0.285
09:47:50.204,0.215,-0.285
09:47:50.206,0.215,-0.285
09:47:50.208,0.215,-0.297
09:47:50.21,0.215,-0.297
09:47:50.212,0.215,-0.297
09:47:50.214,0.250,-0.297
09:47:50.216,0.250,-0.321
09:47:50.218,0.250,-0.321
09:47:50.22,0.250,-0.321
09:47:50.222,0.286,-0.321
09:47:50.224,0.286,-0.332
09:47:50.226,0.286,-0.332
09:47:50.228,0.321,-0.332
09:47:50.23,0.321,-0.332
09:47:50.232,0.357,-0.344
09:47:50.234,0.357,-0.344
09:47:50.236,0.393,-0.344
09:47:50.238,0.393,-0.344
09:47:50.24,0.393,-0.361
09:47:50.242,0.428,-0.361
09:47:50.244,0.464,-0.361
09:47:50.246,0.464,-0.361
09:47:50.248,0.499,-0.367
09:47:50.25,0.499,-0.367
09:47:50.252,0.533,-0.367
09:47:50.254,0.533,-0.367
09:47:50.256,0.569,-0.385
09:47:50.258,0.604,-0.385
09:47:50.26,0.604,-0.385
09:47:50.262,0.640,-0.385
09:47:50.264,0.675,-0.385
09:47:50.266,0.675,-0.385
09:47:50.268,0.711,-0.385
09:47:50.27,0.746,-0.385
09:47:50.272,0.746,-0.396
09:47:50.274,0.782,-0.396
09:47:50.276,0.817,-0.396
09:47:50.278,0.853,-0.396
09:47:50.28,0.853,-0.408
09:47:50.282,0.889,-0.408
09:47:50.284,0.889,-0.408
09:47:50.286,0.924,-0.408
09:47:50.288,0.924,-0.408
09:47:50.29,0.960,-0.408
09:47:50.292,0.960,-0.408
09:47:50.294,0.960,-0.408
09:47:50.296,0.960,-0.419
09:47:50.298,0.995,-0.419
09:47:50.3,0.960,-0.419
09:47:50.302,0.960,-0.419
09:47:50.304,0.960,-0.431
09:47:50.306,0.960,-0.431
09:47:50.308,0.924,-0.431
09:47:50.31,0.924,-0.431
09:47:50.312,0.924,-0.425
09:47:50.314,0.924,-0.425
09:47:50.316,0.889,-0.425
09:47:50.318,0.889,-0.425
09:47:50.32,0.889,-0.425
09:47:50.322,0.853,-0.425
09:47:50.324,0.853,-0.425
09:47:50.326,0.817,-0.425
09:47:50.328,0.817,-0.425
09:47:50.33,0.782,-0.425
09:47:50.332,0.746,-0.425
09:47:50.334,0.711,-0.425
09:47:50.336,0.675,-0.425
09:47:50.338,0.640,-0.425
09:47:50.34,0.604,-0.425
09:47:50.342,0.533,-0.425
09:47:50.344,0.499,-0.413
09:47:50.346,0.464,-0.413
09:47:50.348,0.428,-0.413
09:47:50.35,0.393,-0.413
09:47:50.352,0.357,-0.402
09:47:50.354,0.286,-0.402
09:47:50.356,0.286,-0.402
09:47:50.358,0.250,-0.402
09:47:50.36,0.215,-0.385
09:47:50.362,0.179,-0.385
09:47:50.364,0.179,-0.385
09:47:50.366,0.144,-0.385
09:47:50.368,0.108,-0.349
09:47:50.37,0.108,-0.349
09:47:50.372,0.108,-0.349
09:47:50.374,0.073,-0.349
09:47:50.376,0.073,-0.321
09:47:50.378,0.037,-0.321
09:47:50.38,0.037,-0.321
09:47:50.382,0.003,-0.321
09:47:50.384,0.003,-0.280
09:47:50.386,0.003,-0.280
09:47:50.388,0.003,-0.280
09:47:50.39,-0.032,-0.280
09:47:50.392,-0.032,-0.233
09:47:50.394,-0.032,-0.233
09:47:50.396,-0.068,-0.233
09:47:50.398,-0.068,-0.233
09:47:50.4,-0.068,-0.192
09:47:50.402,-0.068,-0.192
09:47:50.404,-0.103,-0.192
09:47:50.406,-0.103,-0.192
09:47:50.408,-0.103,-0.145
09:47:50.41,-0.103,-0.145
09:47:50.412,-0.103,-0.145
09:47:50.414,-0.103,-0.145
09:47:50.416,-0.103,-0.093
09:47:50.418,-0.139,-0.093
09:47:50.42,-0.139,-0.093
09:47:50.422,-0.139,-0.093
09:47:50.424,-0.139,-0.052
09:47:50.426,-0.139,-0.052
09:47:50.428,-0.139,-0.052
09:47:50.43,-0.139,-0.052
09:47:50.432,-0.139,-0.023
09:47:50.434,-0.139,-0.023
09:47:50.436,-0.139,-0.023
09:47:50.438,-0.174,-0.023
09:47:50.44,-0.174,0.000
09:47:50.442,-0.174,0.000
09:47:50.444,-0.174,0.000
09:47:50.446,-0.174,0.000
09:47:50.448,-0.139,0.018
09:47:50.45,-0.139,0.018
09:47:50.452,-0.139,0.018
09:47:50.454,-0.139,0.018
09:47:50.456,-0.139,0.018
09:47:50.458,-0.139,0.018
09:47:50.46,-0.139,0.018
09:47:50.462,-0.139,0.018
09:47:50.464,-0.139,0.006
09:47:50.466,-0.139,0.006
09:47:50.468,-0.103,0.006
09:47:50.47,-0.103,0.006
09:47:50.472,-0.103,-0.011
09:47:50.474,-0.103,-0.011
09:47:50.476,-0.103,-0.011
09:47:50.478,-0.103,-0.011
09:47:50.48,-0.103,-0.029
09:47:50.482,-0.103,-0.029
09:47:50.484,-0.103,-0.029
09:47:50.486,-0.103,-0.029
09:47:50.488,-0.103,-0.134
09:47:50.49,-0.103,-0.134
09:47:50.492,-0.103,-0.134
09:47:50.494,-0.103,-0.134
09:47:50.496,-0.103,-0.164
09:47:50.498,-0.068,-0.164
09:47:53.666,0.003,0.355
09:47:53.668,0.003,0.355
09:47:53.67,0.037,0.355
09:47:53.672,0.037,0.310
09:47:53.674,0.003,0.310
09:47:53.676,0.003,0.310
09:47:53.678,0.003,0.310
09:47:53.68,0.003,0.260
09:47:53.682,0.003,0.260
09:47:53.684,0.003,0.260
09:47:53.686,0.003,0.260
09:47:53.688,0.003,0.220
09:47:53.69,0.037,0.220
09:47:53.692,0.037,0.220
09:47:53.694,0.073,0.220
09:47:53.696,0.073,0.170
09:47:53.698,0.073,0.170
09:47:53.7,0.073,0.170
09:47:53.702,0.073,0.170
09:47:53.704,0.073,0.118
09:47:53.706,0.073,0.118
09:47:53.708,0.073,0.118
09:47:53.71,0.037,0.118
09:47:53.712,0.037,0.079
09:47:53.714,0.037,0.079
09:47:53.716,0.037,0.079
09:47:53.718,0.003,0.079
09:47:53.72,0.003,0.040
09:47:53.722,0.003,0.040
09:47:53.724,0.003,0.040
09:47:53.726,0.037,0.040
09:47:53.728,0.037,0.006
09:47:53.73,0.037,0.006
09:47:53.732,0.073,0.006
09:47:53.734,0.073,0.006
09:47:53.736,0.073,-0.028
09:47:53.738,0.108,-0.028
09:47:53.74,0.108,-0.028
09:47:53.742,0.108,-0.028
09:47:53.744,0.144,-0.057
09:47:53.746,0.144,-0.057
09:47:53.748,0.108,-0.057
09:47:53.75,0.108,-0.057
09:47:53.752,0.108,-0.073
09:47:53.754,0.073,-0.073
09:47:53.756,0.037,-0.073
09:47:53.758,0.003,-0.073
09:47:53.76,0.003,-0.102
09:47:53.762,-0.032,-0.102
09:47:53.764,-0.103,-0.102
09:47:53.766,-0.139,-0.102
09:47:53.768,-0.210,-0.118
09:47:53.77,-0.281,-0.118
09:47:53.772,-0.317,-0.118
09:47:53.774,-0.388,-0.118
09:47:53.776,-0.494,-0.136
09:47:53.778,-0.635,-0.136
09:47:53.78,-0.848,-0.136
09:47:53.782,-0.990,-0.136
09:47:53.784,-1.131,-0.152
09:47:53.786,-1.237,-0.152
09:47:53.788,-1.273,-0.152
09:47:53.79,-1.344,-0.152
09:47:53.792,-1.380,-0.164
09:47:53.794,-1.415,-0.164
09:47:53.796,-1.415,-0.164
09:47:53.798,-1.380,-0.164
09:47:53.8,-1.380,-0.180
09:47:53.802,-1.380,-0.180
09:47:53.804,-1.344,-0.180
09:47:53.806,-1.309,-0.180
09:47:53.808,-1.237,-0.198
09:47:53.81,-1.131,-0.198
09:47:53.812,-1.024,-0.198
09:47:53.814,-0.919,-0.198
09:47:53.816,-0.813,-0.214
09:47:53.818,-0.777,-0.214
09:47:53.82,-0.670,-0.214
09:47:53.822,-0.599,-0.214
09:47:53.824,-0.528,-0.226
09:47:53.826,-0.494,-0.226
09:47:53.828,-0.423,-0.226
09:47:53.83,-0.388,-0.226
09:47:53.832,-0.352,-0.242
09:47:53.834,-0.281,-0.242
09:47:53.836,-0.246,-0.242
09:47:53.838,-0.210,-0.242
09:47:53.84,-0.174,-0.260
09:47:53.842,-0.174,-0.260
09:47:53.844,-0.139,-0.260
09:47:53.846,-0.103,-0.260
09:47:53.848,-0.068,-0.282
09:47:53.85,-0.068,-0.282
09:47:53.852,-0.032,-0.282
09:47:53.854,0.003,-0.282
09:47:53.856,0.003,-0.293
09:47:53.858,0.003,-0.293
09:47:53.86,0.037,-0.293
09:47:53.862,0.073,-0.293
09:47:53.864,0.108,-0.316
09:47:53.866,0.144,-0.316
09:47:53.868,0.179,-0.316
09:47:53.87,0.215,-0.316
09:47:53.872,0.250,-0.327
09:47:53.874,0.250,-0.327
09:47:53.876,0.286,-0.327
09:47:53.878,0.321,-0.327
09:47:53.88,0.321,-0.344
09:47:53.882,0.321,-0.344
09:47:53.884,0.321,-0.344
09:47:53.886,0.286,-0.344
09:47:53.888,0.286,-0.366
09:47:53.89,0.321,-0.366
09:47:53.892,0.321,-0.366
09:47:53.894,0.357,-0.366
09:47:53.896,0.357,-0.378
09:47:53.898,0.393,-0.378
09:47:53.9,0.393,-0.378
09:47:53.902,0.393,-0.378
09:47:53.904,0.393,-0.389
09:47:53.906,0.393,-0.389
09:47:53.908,0.393,-0.389
09:47:53.91,0.428,-0.389
09:47:53.912,0.428,-0.411
09:47:53.914,0.428,-0.411
09:47:53.916,0.428,-0.411
09:47:53.918,0.428,-0.411
09:47:53.92,0.428,-0.423
09:47:53.922,0.428,-0.423
09:47:53.924,0.464,-0.423
09:47:53.926,0.464,-0.423
09:47:53.928,0.499,-0.428
09:47:53.93,0.533,-0.428
09:47:53.932,0.533,-0.428
09:47:53.934,0.569,-0.428
09:47:53.936,0.604,-0.446
09:47:53.938,0.604,-0.446
09:47:53.94,0.640,-0.446
09:47:53.942,0.640,-0.446
09:47:53.944,0.675,-0.457
09:47:53.946,0.711,-0.457
09:47:53.948,0.711,-0.457
09:47:53.95,0.746,-0.457
09:47:53.952,0.782,-0.473
09:47:53.954,0.817,-0.473
09:47:53.956,0.853,-0.473
09:47:53.958,0.889,-0.473
09:47:53.96,0.889,-0.473
09:47:53.962,0.889,-0.473
09:47:53.964,0.924,-0.473
09:47:53.966,0.924,-0.473
09:47:53.968,0.924,-0.490
09:47:53.97,0.960,-0.490
09:47:53.972,0.960,-0.490
09:47:53.974,0.995,-0.490
09:47:53.976,0.995,-0.496
09:47:53.978,0.995,-0.496
09:47:53.98,0.995,-0.496
09:47:53.982,1.029,-0.496
09:47:53.984,1.029,-0.502
09:47:53.986,1.065,-0.502
09:47:53.988,1.065,-0.502
09:47:53.99,1.065,-0.502
09:47:53.992,1.065,-0.502
09:47:53.994,1.029,-0.502
09:47:53.996,0.995,-0.502
09:47:53.998,0.995,-0.502
09:47:54,0.960,-0.513
09:47:54.002,0.924,-0.513
09:47:54.004,0.924,-0.513
09:47:54.006,0.924,-0.513
09:47:54.008,0.924,-0.519
09:47:54.01,0.889,-0.519
09:47:54.012,0.889,-0.519
09:47:54.014,0.853,-0.519
09:47:54.016,0.817,-0.519
09:47:54.018,0.782,-0.519
09:47:54.02,0.782,-0.519
09:47:54.022,0.711,-0.519
09:47:54.024,0.675,-0.524
09:47:54.026,0.640,-0.524
09:47:54.028,0.604,-0.524
09:47:54.03,0.533,-0.524
09:47:54.032,0.499,-0.519
09:47:54.034,0.464,-0.519
09:47:54.036,0.428,-0.519
09:47:54.038,0.393,-0.519
09:47:54.04,0.357,-0.513
09:47:54.042,0.357,-0.513
09:47:54.044,0.321,-0.513
09:47:54.046,0.286,-0.513
09:47:54.048,0.250,-0.507
09:47:54.05,0.250,-0.507
09:47:54.052,0.215,-0.507
09:47:54.054,0.179,-0.507
09:47:54.056,0.179,-0.496
09:47:54.058,0.144,-0.496
09:47:54.06,0.108,-0.496
09:47:54.062,0.108,-0.496
09:47:54.064,0.073,-0.485
09:47:54.066,0.037,-0.485
09:47:54.068,0.037,-0.485
09:47:54.07,0.003,-0.485
09:47:54.072,0.003,-0.474
09:47:54.074,0.003,-0.474
09:47:54.076,0.003,-0.474
09:47:54.078,0.003,-0.474
09:47:54.08,0.003,-0.444
09:47:54.082,0.003,-0.444
09:47:54.084,-0.032,-0.444
09:47:54.086,-0.032,-0.444
09:47:54.088,-0.068,-0.414
09:47:54.09,-0.068,-0.414
09:47:54.092,-0.068,-0.414
09:47:54.094,-0.068,-0.414
09:47:54.096,-0.068,-0.378
09:47:54.098,-0.103,-0.378
09:47:54.1,-0.103,-0.378
09:47:54.102,-0.103,-0.378
09:47:54.104,-0.103,-0.336
09:47:54.106,-0.103,-0.336
09:47:54.108,-0.103,-0.336
09:47:54.11,-0.103,-0.336
09:47:54.112,-0.103,-0.300
09:47:54.114,-0.103,-0.300
09:47:54.116,-0.103,-0.300
09:47:54.118,-0.103,-0.300
09:47:54.12,-0.103,-0.276
09:47:54.122,-0.103,-0.276
09:47:54.124,-0.103,-0.276
09:47:54.126,-0.103,-0.276
09:47:54.128,-0.103,-0.246
09:47:54.13,-0.103,-0.246
09:47:54.132,-0.103,-0.246
09:47:54.134,-0.103,-0.246
09:47:54.136,-0.103,-0.222
09:47:54.138,-0.103,-0.222
09:47:54.14,-0.139,-0.222
09:47:54.142,-0.139,-0.222
09:47:54.144,-0.139,-0.210
09:48:10.484,-0.032,0.709
09:48:10.486,0.003,0.709
09:48:10.488,0.003,0.672
09:48:10.49,0.003,0.672
09:48:10.492,0.003,0.672
09:48:10.494,0.003,0.672
09:48:10.496,0.003,0.641
09:48:10.498,0.003,0.641
09:48:10.5,0.003,0.641
09:48:10.502,0.003,0.641
09:48:10.504,0.003,0.593
09:48:10.506,0.003,0.593
09:48:10.508,0.003,0.593
09:48:10.51,0.003,0.593
09:48:10.512,0.003,0.549
09:48:10.514,-0.032,0.549
09:48:10.516,0.003,0.549
09:48:10.518,-0.032,0.549
09:48:10.52,-0.032,0.513
09:48:10.522,-0.032,0.513
09:48:10.524,-0.032,0.513
09:48:10.526,-0.032,0.513
09:48:10.528,-0.032,0.458
09:48:10.53,-0.032,0.458
09:48:10.532,-0.068,0.458
09:48:10.534,-0.068,0.458
09:48:10.536,-0.068,0.415
09:48:10.538,-0.068,0.415
09:48:10.54,-0.068,0.415
09:48:10.542,-0.068,0.415
09:48:10.544,-0.068,0.372
09:48:10.546,-0.103,0.372
09:48:10.548,-0.103,0.372
09:48:10.55,-0.103,0.372
09:48:10.552,-0.103,0.330
09:48:10.554,-0.103,0.330
09:48:10.556,-0.103,0.330
09:48:10.558,-0.103,0.330
09:48:10.56,-0.103,0.281
09:48:10.562,-0.103,0.281
09:48:10.564,-0.068,0.281
09:48:10.566,-0.068,0.281
09:48:10.568,-0.068,0.244
09:48:10.57,-0.032,0.244
09:48:10.572,-0.032,0.244
09:48:10.574,0.003,0.244
09:48:10.576,0.003,0.207
09:48:10.578,0.003,0.207
09:48:10.58,0.003,0.207
09:48:10.582,0.003,0.207
09:48:10.584,0.037,0.177
09:48:10.586,0.037,0.177
09:48:10.588,0.037,0.177
09:48:10.59,0.037,0.177
09:48:10.592,0.003,0.146
09:48:10.594,0.003,0.146
09:48:10.596,0.003,0.146
09:48:10.598,-0.068,0.146
09:48:10.6,-0.103,0.122
09:48:10.602,-0.174,0.122
09:48:10.604,-0.246,0.122
09:48:10.606,-0.317,0.122
09:48:10.608,-0.352,0.091
09:48:10.61,-0.459,0.091
09:48:10.612,-0.564,0.091
09:48:10.614,-0.706,0.091
09:48:10.616,-0.955,0.080
09:48:10.618,-1.131,0.080
09:48:10.62,-1.273,0.080
09:48:10.622,-1.380,0.080
09:48:10.624,-1.451,0.061
09:48:10.626,-1.520,0.061
09:48:10.628,-1.556,0.061
09:48:10.63,-1.591,0.061
09:48:10.632,-1.556,0.036
09:48:10.634,-1.556,0.036
09:48:10.636,-1.556,0.036
09:48:10.638,-1.520,0.036
09:48:10.64,-1.451,0.018
09:48:10.642,-1.344,0.018
09:48:10.644,-1.202,0.018
09:48:10.646,-1.095,0.018
09:48:10.648,-0.990,0.000
09:48:10.65,-0.919,0.000
09:48:10.652,-0.813,0.000
09:48:10.654,-0.777,0.000
09:48:10.656,-0.706,-0.025
09:48:10.658,-0.635,-0.025
09:48:10.66,-0.564,-0.025
09:48:10.662,-0.528,-0.025
09:48:10.664,-0.459,-0.049
09:48:10.666,-0.423,-0.049
09:48:10.668,-0.388,-0.049
09:48:10.67,-0.352,-0.049
09:48:10.672,-0.281,-0.061
09:48:10.674,-0.246,-0.061
09:48:10.676,-0.246,-0.061
09:48:10.678,-0.210,-0.061
09:48:10.68,-0.210,-0.086
09:48:10.682,-0.174,-0.086
09:48:10.684,-0.174,-0.086
09:48:10.686,-0.139,-0.086
09:48:10.688,-0.103,-0.104
09:48:10.69,-0.032,-0.104
09:48:10.692,0.003,-0.104
09:48:10.694,0.003,-0.104
09:48:10.696,0.037,-0.122
09:48:10.698,0.073,-0.122
09:48:10.7,0.073,-0.122
09:48:10.702,0.108,-0.122
09:48:10.704,0.108,-0.147
09:48:10.706,0.108,-0.147
09:48:10.708,0.108,-0.147
09:48:10.71,0.144,-0.147
09:48:10.712,0.144,-0.171
09:48:10.714,0.144,-0.171
09:48:10.716,0.144,-0.171
09:48:10.718,0.179,-0.171
09:48:10.72,0.179,-0.190
09:48:10.722,0.179,-0.190
09:48:10.724,0.179,-0.190
09:48:10.726,0.179,-0.190
09:48:10.728,0.179,-0.202
09:48:10.73,0.215,-0.202
09:48:10.732,0.215,-0.202
09:48:10.734,0.215,-0.202
09:48:10.736,0.215,-0.226
09:48:10.738,0.250,-0.226
09:48:10.74,0.250,-0.226
09:48:10.742,0.250,-0.226
09:48:10.744,0.250,-0.238
09:48:10.746,0.286,-0.238
09:48:10.748,0.286,-0.238
09:48:10.75,0.286,-0.238
09:48:10.752,0.321,-0.263
09:48:10.754,0.321,-0.263
09:48:10.756,0.357,-0.263
09:48:10.758,0.393,-0.263
09:48:10.76,0.393,-0.275
09:48:10.762,0.393,-0.275
09:48:10.764,0.428,-0.275
09:48:10.766,0.464,-0.275
09:48:10.768,0.464,-0.299
09:48:10.77,0.499,-0.299
09:48:10.772,0.499,-0.299
09:48:10.774,0.533,-0.299
09:48:10.776,0.533,-0.311
09:48:10.778,0.569,-0.311
09:48:10.78,0.604,-0.311
09:48:10.782,0.640,-0.311
09:48:10.784,0.640,-0.330
09:48:10.786,0.675,-0.330
09:48:10.788,0.675,-0.330
09:48:10.79,0.711,-0.330
09:48:10.792,0.782,-0.336
09:48:10.794,0.782,-0.336
09:48:10.796,0.782,-0.336
09:48:10.798,0.817,-0.336
09:48:10.8,0.853,-0.354
09:48:10.802,0.853,-0.354
09:48:10.804,0.889,-0.354
09:48:10.806,0.889,-0.354
09:48:10.808,0.924,-0.360
09:48:10.81,0.924,-0.360
09:48:10.812,0.960,-0.360
09:48:10.814,0.995,-0.360
09:48:10.816,0.995,-0.373
09:48:10.818,1.029,-0.373
09:48:10.82,1.065,-0.373
09:48:10.822,1.065,-0.373
09:48:10.824,1.065,-0.385
09:48:10.826,1.065,-0.385
09:48:10.828,1.065,-0.385
09:48:10.83,1.065,-0.385
09:48:10.832,1.029,-0.391
09:48:10.834,0.995,-0.391
09:48:10.836,0.960,-0.391
09:48:10.838,0.924,-0.391
09:48:10.84,0.924,-0.391
09:48:10.842,0.853,-0.391
09:48:10.844,0.817,-0.391
09:48:10.846,0.782,-0.391
09:48:10.848,0.711,-0.398
09:48:10.85,0.711,-0.398
09:48:10.852,0.675,-0.398
09:48:10.854,0.604,-0.398
09:48:10.856,0.604,-0.404
09:48:10.858,0.533,-0.404
09:48:10.86,0.499,-0.404
09:48:10.862,0.464,-0.404
09:48:10.864,0.464,-0.404
09:48:10.866,0.393,-0.404
09:48:10.868,0.393,-0.404
09:48:10.87,0.357,-0.404
09:48:10.872,0.321,-0.404
09:48:10.874,0.286,-0.404
09:48:10.876,0.250,-0.404
09:48:10.878,0.215,-0.404
09:48:10.88,0.179,-0.404
09:48:10.882,0.179,-0.404
09:48:10.884,0.144,-0.404
09:48:10.886,0.108,-0.404
09:48:10.888,0.108,-0.385
09:48:10.89,0.073,-0.385
09:48:10.892,0.037,-0.385
09:48:10.894,0.037,-0.385
09:48:10.896,0.003,-0.379
09:48:10.898,0.003,-0.379
09:48:10.9,0.003,-0.379
09:48:10.902,0.003,-0.379
09:48:10.904,-0.032,-0.348
09:48:10.906,-0.032,-0.348
09:48:10.908,-0.032,-0.348
09:48:10.91,-0.032,-0.348
09:48:10.912,-0.068,-0.324
09:48:10.914,-0.068,-0.324
09:48:10.916,-0.068,-0.324
09:48:10.918,-0.068,-0.324
09:48:10.92,-0.103,-0.293
09:48:10.922,-0.103,-0.293
09:48:10.924,-0.103,-0.293
09:48:10.926,-0.103,-0.293
09:48:10.928,-0.103,-0.257
09:48:10.93,-0.103,-0.257
09:48:10.932,-0.103,-0.257
09:48:10.934,-0.103,-0.257
09:48:10.936,-0.103,-0.226
09:48:10.938,-0.103,-0.226
09:48:10.94,-0.103,-0.226
09:48:10.942,-0.103,-0.226
09:48:10.944,-0.103,-0.183
09:48:10.946,-0.103,-0.183
09:48:10.948,-0.103,-0.183
09:48:10.95,-0.103,-0.183
09:48:10.952,-0.103,-0.153
09:48:10.954,-0.103,-0.153
09:48:10.956,-0.103,-0.153
09:48:10.958,-0.103,-0.153
09:48:10.96,-0.103,-0.122
09:48:10.962,-0.103,-0.122
09:48:10.964,-0.103,-0.122
09:48:10.966,-0.103,-0.122
09:48:15.536,0.003,0.398
09:48:15.538,0.003,0.398
09:48:15.54,0.003,0.398
09:48:15.542,0.003,0.398
09:48:15.544,0.003,0.349
09:48:15.546,0.037,0.349
09:48:15.548,0.037,0.349
09:48:15.55,0.003,0.349
09:48:15.552,0.003,0.301
09:48:15.554,0.003,0.301
09:48:15.556,0.003,0.301
09:48:15.558,0.003,0.301
09:48:15.56,0.003,0.253
09:48:15.562,0.003,0.253
09:48:15.564,0.003,0.253
09:48:15.566,0.003,0.253
09:48:15.568,0.003,0.215
09:48:15.57,0.003,0.215
09:48:15.572,0.003,0.215
09:48:15.574,0.003,0.215
09:48:15.576,-0.032,0.172
09:48:15.578,-0.032,0.172
09:48:15.58,-0.032,0.172
09:48:15.582,-0.032,0.172
09:48:15.584,-0.032,0.134
09:48:15.586,-0.068,0.134
09:48:15.588,-0.032,0.134
09:48:15.59,-0.032,0.134
09:48:15.592,-0.032,0.102
09:48:15.594,-0.032,0.102
09:48:15.596,-0.032,0.102
09:48:15.598,-0.032,0.102
09:48:15.6,-0.032,0.070
09:48:15.602,-0.032,0.070
09:48:15.604,0.003,0.070
09:48:15.606,0.003,0.070
09:48:15.608,0.003,0.048
09:48:15.61,0.003,0.048
09:48:15.612,0.037,0.048
09:48:15.614,0.037,0.048
09:48:15.616,0.037,0.021
09:48:15.618,0.073,0.021
09:48:15.62,0.073,0.021
09:48:15.622,0.073,0.021
09:48:15.624,0.073,0.000
09:48:15.626,0.073,0.000
09:48:15.628,0.073,0.000
09:48:15.63,0.037,0.000
09:48:15.632,0.003,-0.021
09:48:15.634,0.003,-0.021
09:48:15.636,-0.068,-0.021
09:48:15.638,-0.103,-0.021
09:48:15.64,-0.174,-0.043
09:48:15.642,-0.281,-0.043
09:48:15.644,-0.352,-0.043
09:48:15.646,-0.388,-0.043
09:48:15.648,-0.494,-0.065
09:48:15.65,-0.599,-0.065
09:48:15.652,-0.813,-0.065
09:48:15.654,-0.990,-0.065
09:48:15.656,-1.166,-0.086
09:48:15.658,-1.237,-0.086
09:48:15.66,-1.273,-0.086
09:48:15.662,-1.273,-0.086
09:48:15.664,-1.237,-0.097
09:48:15.666,-1.202,-0.097
09:48:15.668,-1.131,-0.097
09:48:15.67,-1.060,-0.097
09:48:15.672,-0.955,-0.118
09:48:15.674,-0.884,-0.118
09:48:15.676,-0.848,-0.118
09:48:15.678,-0.777,-0.118
09:48:15.68,-0.742,-0.140
09:48:15.682,-0.706,-0.140
09:48:15.684,-0.670,-0.140
09:48:15.686,-0.599,-0.140
09:48:15.688,-0.528,-0.156
09:48:15.69,-0.459,-0.156
09:48:15.692,-0.423,-0.156
09:48:15.694,-0.388,-0.156
09:48:15.696,-0.352,-0.177
09:48:15.698,-0.317,-0.177
09:48:15.7,-0.246,-0.177
09:48:15.702,-0.210,-0.177
09:48:15.704,-0.139,-0.194
09:48:15.706,-0.068,-0.194
09:48:15.708,-0.032,-0.194
09:48:15.71,0.003,-0.194
09:48:15.712,0.037,-0.210
09:48:15.714,0.073,-0.210
09:48:15.716,0.108,-0.210
09:48:15.718,0.144,-0.210
09:48:15.72,0.144,-0.236
09:48:15.722,0.179,-0.236
09:48:15.724,0.179,-0.236
09:48:15.726,0.179,-0.236
09:48:15.728,0.179,-0.253
09:48:15.73,0.144,-0.253
09:48:15.732,0.144,-0.253
09:48:15.734,0.144,-0.253
09:48:15.736,0.144,-0.269
09:48:15.738,0.144,-0.269
09:48:15.74,0.144,-0.269
09:48:15.742,0.108,-0.269
09:48:15.744,0.144,-0.290
09:48:15.746,0.108,-0.290
09:48:15.748,0.108,-0.290
09:48:15.75,0.108,-0.290
09:48:15.752,0.144,-0.306
09:48:15.754,0.144,-0.306
09:48:15.756,0.179,-0.306
09:48:15.758,0.179,-0.306
09:48:15.76,0.179,-0.323
09:48:15.762,0.215,-0.323
09:48:15.764,0.179,-0.323
09:48:15.766,0.179,-0.323
09:48:15.768,0.179,-0.334
09:48:15.77,0.179,-0.334
09:48:15.772,0.179,-0.334
09:48:15.774,0.215,-0.334
09:48:15.776,0.215,-0.355
09:48:15.778,0.215,-0.355
09:48:15.78,0.250,-0.355
09:48:15.782,0.250,-0.355
09:48:15.784,0.250,-0.365
09:48:15.786,0.250,-0.365
09:48:15.788,0.250,-0.365
09:48:15.79,0.250,-0.365
09:48:15.792,0.286,-0.377
09:48:15.794,0.321,-0.377
09:48:15.796,0.321,-0.377
09:48:15.798,0.321,-0.377
09:48:15.8,0.357,-0.393
09:48:15.802,0.393,-0.393
09:48:15.804,0.428,-0.393
09:48:15.806,0.464,-0.393
09:48:15.808,0.499,-0.404
09:48:15.81,0.499,-0.404
09:48:15.812,0.533,-0.404
09:48:15.814,0.569,-0.404
09:48:15.816,0.569,-0.408
09:48:15.818,0.604,-0.408
09:48:15.82,0.604,-0.408
09:48:15.822,0.640,-0.408
09:48:15.824,0.675,-0.425
09:48:15.826,0.711,-0.425
09:48:15.828,0.711,-0.425
09:48:15.83,0.746,-0.425
09:48:15.832,0.746,-0.425
09:48:15.834,0.782,-0.425
09:48:15.836,0.782,-0.425
09:48:15.838,0.817,-0.425
09:48:15.84,0.817,-0.435
09:48:15.842,0.817,-0.435
09:48:15.844,0.853,-0.435
09:48:15.846,0.889,-0.435
09:48:15.848,0.889,-0.441
09:48:15.85,0.889,-0.441
09:48:15.852,0.889,-0.441
09:48:15.854,0.889,-0.441
09:48:15.856,0.853,-0.447
09:48:15.858,0.853,-0.447
09:48:15.86,0.853,-0.447
09:48:15.862,0.817,-0.447
09:48:15.864,0.817,-0.452
09:48:15.866,0.853,-0.452
09:48:15.868,0.853,-0.452
09:48:15.87,0.853,-0.452
09:48:15.872,0.817,-0.452
09:48:15.874,0.817,-0.452
09:48:15.876,0.782,-0.452
09:48:15.878,0.782,-0.452
09:48:15.88,0.711,-0.447
09:48:15.882,0.711,-0.447
09:48:15.884,0.675,-0.447
09:48:15.886,0.640,-0.447
09:48:15.888,0.604,-0.441
09:48:15.89,0.533,-0.441
09:48:15.892,0.499,-0.441
09:48:15.894,0.464,-0.441
09:48:15.896,0.428,-0.435
09:48:15.898,0.393,-0.435
09:48:15.9,0.357,-0.435
09:48:15.902,0.321,-0.435
09:48:15.904,0.286,-0.419
09:48:15.906,0.250,-0.419
09:48:15.908,0.215,-0.419
09:48:15.91,0.179,-0.419
09:48:15.912,0.144,-0.387
09:48:15.914,0.108,-0.387
09:48:15.916,0.073,-0.387
09:48:15.918,0.073,-0.387
09:48:15.92,0.073,-0.355
09:48:15.922,0.037,-0.355
09:48:15.924,0.037,-0.355
09:48:15.926,0.003,-0.355
09:48:15.928,0.003,-0.318
09:48:15.93,0.003,-0.318
09:48:15.932,-0.032,-0.318
09:48:15.934,-0.032,-0.318
09:48:15.936,-0.032,-0.269
09:48:15.938,-0.032,-0.269
09:48:15.94,-0.032,-0.269
09:48:15.942,-0.032,-0.269
09:48:15.944,-0.032,-0.215
09:48:15.946,-0.032,-0.215
09:48:15.948,-0.032,-0.215
09:48:15.95,-0.032,-0.215
09:48:15.952,-0.068,-0.162
09:48:15.954,-0.068,-0.162
09:48:15.956,-0.068,-0.162
09:48:15.958,-0.068,-0.162
09:48:15.96,-0.068,-0.107
09:48:15.962,-0.068,-0.107
09:48:15.964,-0.032,-0.107
09:48:15.966,-0.032,-0.107
09:48:15.968,-0.032,-0.049
09:48:15.97,-0.032,-0.049
09:48:15.972,-0.032,-0.049
09:48:15.974,-0.068,-0.049
09:48:15.976,-0.032,-0.005
09:48:15.978,-0.032,-0.005
09:48:15.98,-0.032,-0.005
09:48:15.982,-0.032,-0.005
09:48:15.984,-0.032,0.032
09:48:15.986,-0.032,0.032
09:48:15.988,-0.032,0.032
09:48:15.99,0.003,0.032
09:48:15.992,0.003,0.059
09:48:15.994,0.003,0.059
09:48:15.996,-0.032,0.059
09:48:15.998,-0.032,0.059
09:48:16,-0.032,0.075
09:48:16.002,-0.032,0.075
09:48:16.004,0.003,0.075
09:48:16.006,0.003,0.075
09:48:16.008,0.003,0.086
09:48:16.01,0.003,0.086
09:48:16.012,0.003,0.086
09:48:16.014,0.003,0.086
09:48:16.016,0.003,0.081
09:48:16.018,-0.032,0.081
09:48:16.02,0.003,0.081
09:48:16.022,0.003,0.081
09:48:16.024,0.003,0.075
09:48:16.026,0.003,0.075
09:48:16.028,0.003,0.075
09:48:16.03,-0.032,0.075
09:48:16.032,0.003,0.053
09:48:16.034,-0.032,0.053
09:48:16.036,-0.032,0.053
09:48:16.038,0.003,0.053
09:48:16.04,0.003,0.026
09:48:16.042,0.003,0.026
09:48:16.044,0.003,0.026
09:48:16.046,0.003,0.026
09:48:16.048,0.037,-0.005
09:48:16.05,0.037,-0.005
09:48:16.052,0.073,-0.005
09:48:16.054,0.073,-0.005
09:48:19.034,-0.068,0.229
09:48:19.036,-0.068,0.229
09:48:19.038,-0.068,0.229
09:48:19.04,-0.068,0.186
09:48:19.042,-0.068,0.186
09:48:19.044,-0.068,0.186
09:48:19.046,-0.068,0.186
09:48:19.048,-0.032,0.163
09:48:19.05,-0.068,0.163
09:48:19.052,-0.068,0.163
09:48:19.054,-0.068,0.163
09:48:19.056,-0.032,0.133
09:48:19.058,-0.032,0.133
09:48:19.06,-0.032,0.133
09:48:19.062,-0.032,0.133
09:48:19.064,-0.032,0.102
09:48:19.066,-0.032,0.102
09:48:19.068,-0.032,0.102
09:48:19.07,-0.032,0.102
09:48:19.072,0.003,0.078
09:48:19.074,0.003,0.078
09:48:19.076,0.003,0.078
09:48:19.078,0.003,0.078
09:48:19.08,0.003,0.054
09:48:19.082,0.037,0.054
09:48:19.084,0.037,0.054
09:48:19.086,0.073,0.054
09:48:19.088,0.108,0.024
09:48:19.09,0.108,0.024
09:48:19.092,0.108,0.024
09:48:19.094,0.108,0.024
09:48:19.096,0.073,0.006
09:48:19.098,0.073,0.006
09:48:19.1,0.037,0.006
09:48:19.102,0.003,0.006
09:48:19.104,0.003,-0.018
09:48:19.106,-0.032,-0.018
09:48:19.108,-0.068,-0.018
09:48:19.11,-0.139,-0.018
09:48:19.112,-0.210,-0.036
09:48:19.114,-0.246,-0.036
09:48:19.116,-0.317,-0.036
09:48:19.118,-0.423,-0.036
09:48:19.12,-0.635,-0.054
09:48:19.122,-0.848,-0.054
09:48:19.124,-1.060,-0.054
09:48:19.126,-1.202,-0.054
09:48:19.128,-1.309,-0.066
09:48:19.13,-1.380,-0.066
09:48:19.132,-1.451,-0.066
09:48:19.134,-1.486,-0.066
09:48:19.136,-1.520,-0.090
09:48:19.138,-1.520,-0.090
09:48:19.14,-1.520,-0.090
09:48:19.142,-1.556,-0.090
09:48:19.144,-1.556,-0.115
09:48:19.146,-1.520,-0.115
09:48:19.148,-1.486,-0.115
09:48:19.15,-1.415,-0.115
09:48:19.152,-1.309,-0.139
09:48:19.154,-1.202,-0.139
09:48:19.156,-1.131,-0.139
09:48:19.158,-1.024,-0.139
09:48:19.16,-0.919,-0.157
09:48:19.162,-0.848,-0.157
09:48:19.164,-0.777,-0.157
09:48:19.166,-0.706,-0.157
09:48:19.168,-0.635,-0.180
09:48:19.17,-0.599,-0.180
09:48:19.172,-0.528,-0.180
09:48:19.174,-0.494,-0.180
09:48:19.176,-0.459,-0.204
09:48:19.178,-0.388,-0.204
09:48:19.18,-0.352,-0.204
09:48:19.182,-0.317,-0.204
09:48:19.184,-0.317,-0.223
09:48:19.186,-0.281,-0.223
09:48:19.188,-0.246,-0.223
09:48:19.19,-0.246,-0.223
09:48:19.192,-0.210,-0.234
09:48:19.194,-0.210,-0.234
09:48:19.196,-0.174,-0.234
09:48:19.198,-0.139,-0.234
09:48:19.2,-0.103,-0.265
09:48:19.202,-0.068,-0.265
09:48:19.204,-0.032,-0.265
09:48:19.206,0.003,-0.265
09:48:19.208,0.037,-0.277
09:48:19.21,0.073,-0.277
09:48:19.212,0.108,-0.277
09:48:19.214,0.144,-0.277
09:48:19.216,0.144,-0.288
09:48:19.218,0.179,-0.288
09:48:19.22,0.179,-0.288
09:48:19.222,0.179,-0.288
09:48:19.224,0.215,-0.313
09:48:19.226,0.215,-0.313
09:48:19.228,0.215,-0.313
09:48:19.23,0.215,-0.313
09:48:19.232,0.215,-0.325
09:48:19.234,0.250,-0.325
09:48:19.236,0.250,-0.325
09:48:19.238,0.250,-0.325
09:48:19.24,0.286,-0.343
09:48:19.242,0.286,-0.343
09:48:19.244,0.286,-0.343
09:48:19.246,0.321,-0.343
09:48:19.248,0.321,-0.355
09:48:19.25,0.321,-0.355
09:48:19.252,0.321,-0.355
09:48:19.254,0.357,-0.355
09:48:19.256,0.357,-0.373
09:48:19.258,0.393,-0.373
09:48:19.26,0.393,-0.373
09:48:19.262,0.428,-0.373
09:48:19.264,0.464,-0.379
09:48:19.266,0.499,-0.379
09:48:19.268,0.533,-0.379
09:48:19.27,0.533,-0.379
09:48:19.272,0.569,-0.391
09:48:19.274,0.569,-0.391
09:48:19.276,0.604,-0.391
09:48:19.278,0.604,-0.391
09:48:19.28,0.640,-0.397
09:48:19.282,0.640,-0.397
09:48:19.284,0.675,-0.397
09:48:19.286,0.675,-0.397
09:48:19.288,0.711,-0.409
09:48:19.29,0.711,-0.409
09:48:19.292,0.711,-0.409
09:48:19.294,0.746,-0.409
09:48:19.296,0.746,-0.415
09:48:19.298,0.782,-0.415
09:48:19.3,0.817,-0.415
09:48:19.302,0.817,-0.415
09:48:19.304,0.853,-0.427
09:48:19.306,0.853,-0.427
09:48:19.308,0.853,-0.427
09:48:19.31,0.889,-0.427
09:48:19.312,0.889,-0.427
09:48:19.314,0.924,-0.427
09:48:19.316,0.924,-0.427
09:48:19.318,0.924,-0.427
09:48:19.32,0.924,-0.433
09:48:19.322,0.924,-0.433
09:48:19.324,0.960,-0.433
09:48:19.326,0.960,-0.433
09:48:19.328,0.960,-0.445
09:48:19.33,0.960,-0.445
09:48:19.332,0.960,-0.445
09:48:19.334,0.960,-0.445
09:48:19.336,0.924,-0.445
09:48:19.338,0.924,-0.445
09:48:19.34,0.924,-0.445
09:48:19.342,0.889,-0.445
09:48:19.344,0.853,-0.445
09:48:19.346,0.853,-0.445
09:48:19.348,0.817,-0.445
09:48:19.35,0.817,-0.445
09:48:19.352,0.782,-0.439
09:48:19.354,0.782,-0.439
09:48:19.356,0.746,-0.439
09:48:19.358,0.711,-0.439
09:48:19.36,0.675,-0.427
09:48:19.362,0.675,-0.427
09:48:19.364,0.640,-0.427
09:48:19.366,0.604,-0.427
09:48:19.368,0.569,-0.409
09:48:19.37,0.533,-0.409
09:48:19.372,0.499,-0.409
09:48:19.374,0.499,-0.409
09:48:19.376,0.464,-0.385
09:48:19.378,0.428,-0.385
09:48:19.38,0.393,-0.385
09:48:19.382,0.393,-0.385
09:48:19.384,0.357,-0.337
09:48:19.386,0.321,-0.337
09:48:19.388,0.286,-0.337
09:48:19.39,0.250,-0.337
09:48:19.392,0.250,-0.288
09:48:19.394,0.215,-0.288
09:48:19.396,0.179,-0.288
09:48:19.398,0.179,-0.288
09:48:19.4,0.144,-0.229
09:48:19.402,0.108,-0.229
09:48:19.404,0.108,-0.229
09:48:19.406,0.073,-0.229
09:48:19.408,0.073,-0.163
09:48:19.41,0.037,-0.163
09:48:19.412,0.037,-0.163
09:48:19.414,0.037,-0.163
09:48:19.416,0.003,-0.090
09:48:19.418,0.003,-0.090
09:48:19.42,0.003,-0.090
09:48:19.422,0.003,-0.090
09:48:19.424,0.037,-0.018
09:48:19.426,0.037,-0.018
09:48:19.428,0.037,-0.018
09:48:19.43,0.037,-0.018
09:48:19.432,0.037,0.048
09:48:19.434,0.037,0.048
09:48:19.436,0.037,0.048
09:48:19.438,0.003,0.048
09:48:19.44,0.003,0.115
09:48:19.442,0.003,0.115
09:48:19.444,0.003,0.115
09:48:19.446,0.003,0.115
09:48:19.448,0.003,0.163
09:48:19.45,-0.032,0.163
09:48:19.452,-0.032,0.163
09:48:19.454,-0.032,0.163
09:48:19.456,-0.032,0.199
09:48:19.458,-0.068,0.199
09:48:19.46,-0.068,0.199
09:48:19.462,-0.068,0.199
09:48:19.464,-0.103,0.229
09:48:19.466,-0.103,0.229
09:48:19.468,-0.103,0.229
09:48:19.47,-0.103,0.229
09:48:19.472,-0.103,0.253
09:48:19.474,-0.103,0.253
09:48:19.476,-0.139,0.253
09:48:19.478,-0.139,0.253
09:48:19.48,-0.139,0.253
09:48:19.482,-0.139,0.253
09:48:19.484,-0.139,0.253
09:48:19.486,-0.139,0.253
09:48:19.488,-0.139,0.234
09:48:19.49,-0.103,0.234
09:48:19.492,-0.103,0.234
09:48:19.494,-0.103,0.234
09:48:19.496,-0.139,0.216
09:48:19.498,-0.139,0.216
09:48:19.5,-0.139,0.216
09:48:19.502,-0.139,0.216
09:48:19.504,-0.139,0.186
09:48:19.506,-0.139,0.186
09:48:19.508,-0.103,0.186
09:48:19.51,-0.103,0.186
09:48:19.512,-0.103,0.150
09:48:19.514,-0.103,0.150
09:48:19.516,-0.103,0.150
09:48:19.518,-0.103,0.150
09:48:19.52,-0.103,0.108
09:48:19.522,-0.103,0.108
09:48:19.524,-0.103,0.108
09:48:19.526,-0.103,0.108
09:48:19.528,-0.103,0.054
09:48:19.53,-0.103,0.054
09:48:19.532,-0.103,0.054
09:48:19.534,-0.103,0.054
09:48:19.536,-0.103,0.012
09:48:19.538,-0.103,0.012
09:48:19.54,-0.103,0.012
09:48:19.542,-0.103,0.012
09:48:19.544,-0.103,-0.036
09:48:19.546,-0.103,-0.036
09:48:19.548,-0.103,-0.036
09:48:19.55,-0.103,-0.036
09:48:19.552,-0.103,-0.090
09:48:19.554,-0.103,-0.090
09:48:19.556,-0.068,-0.090
09:48:19.558,-0.103,-0.090
09:48:19.56,-0.068,-0.133
09:48:19.562,-0.103,-0.133
09:48:19.564,-0.103,-0.133
09:48:19.566,-0.103,-0.133
09:48:19.568,-0.103,-0.174
09:48:19.57,-0.139,-0.174
09:48:19.572,-0.139,-0.174
09:48:19.574,-0.103,-0.174
09:48:19.576,-0.103,-0.204
09:48:19.578,-0.103,-0.204
09:48:19.58,-0.103,-0.204
09:48:19.582,-0.068,-0.204
09:48:19.584,-0.068,-0.229
09:48:19.586,-0.068,-0.229
09:48:19.588,-0.032,-0.229
09:48:19.59,-0.032,-0.229
09:48:19.592,-0.032,-0.253
09:48:19.594,-0.032,-0.253
09:48:19.596,-0.032,-0.253
09:48:19.598,-0.068,-0.253
09:48:24.774,0.037,0.734
09:48:24.776,0.037,0.712
09:48:24.778,0.003,0.712
09:48:24.78,0.003,0.712
09:48:24.782,0.003,0.712
09:48:24.784,0.003,0.673
09:48:24.786,0.003,0.673
09:48:24.788,0.003,0.673
09:48:24.79,0.003,0.673
09:48:24.792,0.003,0.645
09:48:24.794,0.003,0.645
09:48:24.796,0.003,0.645
09:48:24.798,0.003,0.645
09:48:24.8,0.003,0.601
09:48:24.802,0.003,0.601
09:48:24.804,0.003,0.601
09:48:24.806,0.003,0.601
09:48:24.808,-0.032,0.556
09:48:24.81,-0.032,0.556
09:48:24.812,-0.032,0.556
09:48:24.814,-0.032,0.556
09:48:24.816,0.003,0.517
09:48:24.818,0.003,0.517
09:48:24.82,0.003,0.517
09:48:24.822,0.003,0.517
09:48:24.824,-0.032,0.462
09:48:24.826,-0.032,0.462
09:48:24.828,-0.032,0.462
09:48:24.83,-0.032,0.462
09:48:24.832,-0.032,0.411
09:48:24.834,-0.032,0.411
09:48:24.836,-0.032,0.411
09:48:24.838,-0.032,0.411
09:48:24.84,-0.032,0.367
09:48:24.842,-0.032,0.367
09:48:24.844,-0.032,0.367
09:48:24.846,-0.032,0.367
09:48:24.848,-0.032,0.317
09:48:24.85,-0.032,0.317
09:48:24.852,-0.032,0.317
09:48:24.854,-0.032,0.317
09:48:24.856,-0.032,0.267
09:48:24.858,-0.032,0.267
09:48:24.86,-0.032,0.267
09:48:24.862,-0.032,0.267
09:48:24.864,-0.032,0.223
09:48:24.866,-0.032,0.223
09:48:24.868,-0.032,0.223
09:48:24.87,-0.032,0.223
09:48:24.872,-0.032,0.183
09:48:24.874,-0.032,0.183
09:48:24.876,-0.032,0.183
09:48:24.878,-0.032,0.183
09:48:24.88,-0.032,0.150
09:48:24.882,-0.032,0.150
09:48:24.884,-0.032,0.150
09:48:24.886,0.003,0.150
09:48:24.888,0.003,0.117
09:48:24.89,0.003,0.117
09:48:24.892,0.003,0.117
09:48:24.894,-0.032,0.117
09:48:24.896,-0.032,0.089
09:48:24.898,-0.032,0.089
09:48:24.9,-0.032,0.089
09:48:24.902,-0.032,0.089
09:48:24.904,-0.032,0.061
09:48:24.906,-0.032,0.061
09:48:24.908,-0.032,0.061
09:48:24.91,-0.032,0.061
09:48:24.912,-0.032,0.038
09:48:24.914,-0.032,0.038
09:48:24.916,-0.032,0.038
09:48:24.918,0.003,0.038
09:48:24.92,0.003,0.017
09:48:24.922,0.003,0.017
09:48:24.924,0.003,0.017
09:48:24.926,0.003,0.017
09:48:24.928,0.037,-0.006
09:48:24.93,0.037,-0.006
09:48:24.932,0.037,-0.006
09:48:24.934,0.073,-0.006
09:48:24.936,0.073,-0.028
09:48:24.938,0.037,-0.028
09:48:24.94,0.037,-0.028
09:48:24.942,0.037,-0.028
09:48:24.944,0.037,-0.051
09:48:24.946,0.073,-0.051
09:48:24.948,0.073,-0.051
09:48:24.95,0.073,-0.051
09:48:24.952,0.108,-0.061
09:48:24.954,0.108,-0.061
09:48:24.956,0.108,-0.061
09:48:24.958,0.073,-0.061
09:48:24.96,0.073,-0.084
09:48:24.962,0.073,-0.084
09:48:24.964,0.073,-0.084
09:48:24.966,0.037,-0.084
09:48:24.968,0.003,-0.106
09:48:24.97,0.003,-0.106
09:48:24.972,-0.068,-0.106
09:48:24.974,-0.103,-0.106
09:48:24.976,-0.174,-0.122
09:48:24.978,-0.210,-0.122
09:48:24.98,-0.246,-0.122
09:48:24.982,-0.281,-0.122
09:48:24.984,-0.352,-0.145
09:48:24.986,-0.459,-0.145
09:48:24.988,-0.599,-0.145
09:48:24.99,-0.813,-0.145
09:48:24.992,-0.990,-0.162
09:48:24.994,-1.131,-0.162
09:48:24.996,-1.202,-0.162
09:48:24.998,-1.309,-0.162
09:48:25,-1.344,-0.184
09:48:25.002,-1.380,-0.184
09:48:25.004,-1.380,-0.184
09:48:25.006,-1.380,-0.184
09:48:25.008,-1.344,-0.195
09:48:25.01,-1.309,-0.195
09:48:25.012,-1.309,-0.195
09:48:25.014,-1.309,-0.195
09:48:25.016,-1.273,-0.217
09:48:25.018,-1.202,-0.217
09:48:25.02,-1.131,-0.217
09:48:25.022,-1.060,-0.217
09:48:25.024,-0.955,-0.234
09:48:25.026,-0.848,-0.234
09:48:25.028,-0.777,-0.234
09:48:25.03,-0.706,-0.234
09:48:25.032,-0.670,-0.256
09:48:25.034,-0.599,-0.256
09:48:25.036,-0.528,-0.256
09:48:25.038,-0.459,-0.256
09:48:25.04,-0.423,-0.267
09:48:25.042,-0.352,-0.267
09:48:25.044,-0.317,-0.267
09:48:25.046,-0.246,-0.267
09:48:25.048,-0.246,-0.284
09:48:25.05,-0.246,-0.284
09:48:25.052,-0.246,-0.284
09:48:25.054,-0.246,-0.284
09:48:25.056,-0.210,-0.300
09:48:25.058,-0.174,-0.300
09:48:25.06,-0.174,-0.300
09:48:25.062,-0.139,-0.300
09:48:25.064,-0.103,-0.318
09:48:25.066,-0.103,-0.318
09:48:25.068,-0.068,-0.318
09:48:25.07,-0.032,-0.318
09:48:25.072,0.003,-0.329
09:48:25.074,0.003,-0.329
09:48:25.076,0.073,-0.329
09:48:25.078,0.108,-0.329
09:48:25.08,0.144,-0.345
09:48:25.082,0.179,-0.345
09:48:25.084,0.215,-0.345
09:48:25.086,0.215,-0.345
09:48:25.088,0.250,-0.356
09:48:25.09,0.286,-0.356
09:48:25.092,0.321,-0.356
09:48:25.094,0.321,-0.356
09:48:25.096,0.357,-0.373
09:48:25.098,0.357,-0.373
09:48:25.1,0.357,-0.373
09:48:25.102,0.321,-0.373
09:48:25.104,0.321,-0.379
09:48:25.106,0.321,-0.379
09:48:25.108,0.321,-0.379
09:48:25.11,0.321,-0.379
09:48:25.112,0.321,-0.384
09:48:25.114,0.321,-0.384
09:48:25.116,0.357,-0.384
09:48:25.118,0.357,-0.384
09:48:25.12,0.393,-0.401
09:48:25.122,0.393,-0.401
09:48:25.124,0.393,-0.401
09:48:25.126,0.393,-0.401
09:48:25.128,0.428,-0.406
09:48:25.13,0.428,-0.406
09:48:25.132,0.428,-0.406
09:48:25.134,0.428,-0.406
09:48:25.136,0.464,-0.423
09:48:25.138,0.464,-0.423
09:48:25.14,0.464,-0.423
09:48:25.142,0.499,-0.423
09:48:25.144,0.499,-0.428
09:48:25.146,0.533,-0.428
09:48:25.148,0.533,-0.428
09:48:25.15,0.569,-0.428
09:48:25.152,0.604,-0.434
09:48:25.154,0.604,-0.434
09:48:25.156,0.640,-0.434
09:48:25.158,0.675,-0.434
09:48:25.16,0.675,-0.445
09:48:25.162,0.711,-0.445
09:48:25.164,0.746,-0.445
09:48:25.166,0.746,-0.445
09:48:25.168,0.782,-0.445
09:48:25.17,0.817,-0.445
09:48:25.172,0.853,-0.445
09:48:25.174,0.889,-0.445
09:48:25.176,0.924,-0.457
09:48:25.178,0.924,-0.457
09:48:25.18,0.924,-0.457
09:48:25.182,0.924,-0.457
09:48:25.184,0.960,-0.451
09:48:25.186,0.960,-0.451
09:48:25.188,0.960,-0.451
09:48:25.19,0.960,-0.451
09:48:25.192,0.960,-0.457
09:48:25.194,0.960,-0.457
09:48:25.196,0.960,-0.457
09:48:25.198,0.924,-0.457
09:48:25.2,0.924,-0.457
09:48:25.202,0.924,-0.457
09:48:25.204,0.924,-0.457
09:48:25.206,0.924,-0.457
09:48:25.208,0.889,-0.457
09:48:25.21,0.889,-0.457
09:48:25.212,0.853,-0.457
09:48:25.214,0.853,-0.457
09:48:25.216,0.817,-0.462
09:48:25.218,0.817,-0.462
09:48:25.22,0.782,-0.462
09:48:25.222,0.711,-0.462
09:48:25.224,0.711,-0.457
09:48:25.226,0.675,-0.457
09:48:25.228,0.675,-0.457
09:48:25.23,0.675,-0.457
09:48:25.232,0.675,-0.451
09:48:25.234,0.640,-0.451
09:48:25.236,0.640,-0.451
09:48:25.238,0.604,-0.451
09:48:25.24,0.569,-0.445
09:48:25.242,0.533,-0.445
09:48:25.244,0.499,-0.445
09:48:25.246,0.499,-0.445
09:48:25.248,0.464,-0.423
09:48:25.25,0.428,-0.423
09:48:25.252,0.393,-0.423
09:48:25.254,0.393,-0.423
09:48:25.256,0.357,-0.406
09:48:25.258,0.321,-0.406
09:48:25.26,0.321,-0.406
09:48:25.262,0.250,-0.406
09:48:25.264,0.215,-0.379
09:48:25.266,0.179,-0.379
09:48:25.268,0.179,-0.379
09:48:25.27,0.144,-0.379
09:48:25.272,0.108,-0.350
09:48:25.274,0.108,-0.350
09:48:25.276,0.108,-0.350
09:48:25.278,0.073,-0.350
09:48:25.28,0.073,-0.306
09:48:25.282,0.037,-0.306
09:48:25.284,0.037,-0.306
09:48:25.286,0.003,-0.306
09:48:25.288,0.003,-0.256
09:48:25.29,0.003,-0.256
09:48:25.292,0.003,-0.256
09:48:25.294,0.003,-0.256
09:48:25.296,-0.032,-0.211
09:48:25.298,-0.032,-0.211
09:48:25.3,-0.032,-0.211
09:48:25.302,-0.068,-0.211
09:48:25.304,-0.068,-0.223
09:48:25.306,-0.068,-0.223
09:48:25.308,-0.068,-0.223
09:48:25.31,-0.068,-0.223
09:48:25.312,-0.068,-0.178
09:48:25.314,-0.068,-0.178
09:48:25.316,-0.068,-0.178
09:48:25.318,-0.068,-0.178
09:48:25.32,-0.103,-0.134
09:48:25.322,-0.103,-0.134
09:48:25.324,-0.103,-0.134
09:48:25.326,-0.103,-0.134
09:48:25.328,-0.103,-0.105
09:48:25.33,-0.103,-0.105
09:48:25.332,-0.103,-0.105
09:48:25.334,-0.103,-0.105
09:48:25.336,-0.103,-0.084
09:48:25.338,-0.103,-0.084
09:48:25.34,-0.103,-0.084
09:48:25.342,-0.103,-0.084
09:48:25.344,-0.103,-0.067
09:48:25.346,-0.103,-0.067
09:48:25.348,-0.103,-0.067
09:48:25.35,-0.103,-0.067
09:48:25.352,-0.103,-0.061
09:48:25.354,-0.103,-0.061
09:48:25.356,-0.139,-0.061
09:48:25.358,-0.139,-0.061
09:48:25.36,-0.139,-0.072
09:48:25.362,-0.174,-0.072
09:48:25.364,-0.174,-0.072
09:48:25.366,-0.174,-0.072
09:48:25.368,-0.174,-0.084
09:48:25.37,-0.174,-0.084
09:48:25.372,-0.139,-0.084
09:48:25.374,-0.139,-0.084
09:48:25.376,-0.139,-0.100
09:48:25.378,-0.103,-0.100
09:48:25.38,-0.103,-0.100
09:48:25.382,-0.103,-0.100
09:48:25.384,-0.103,-0.128
09:48:25.386,-0.103,-0.128
09:48:25.388,-0.103,-0.128
09:48:25.39,-0.103,-0.128
09:48:25.392,-0.103,-0.162
09:48:25.394,-0.103,-0.162
09:48:25.396,-0.103,-0.162
09:48:25.398,-0.068,-0.162
09:48:25.4,-0.068,-0.195
09:48:25.402,-0.068,-0.195
09:48:25.404,-0.068,-0.195
09:48:25.406,-0.068,-0.195
09:48:25.408,-0.068,-0.228
09:48:25.41,-0.032,-0.228
09:48:25.412,-0.032,-0.228
09:48:25.414,-0.032,-0.228
09:48:25.416,-0.032,-0.262
09:48:25.418,-0.032,-0.262
09:48:25.42,-0.068,-0.262
09:48:25.422,-0.068,-0.262
09:48:25.424,-0.068,-0.295
09:48:25.426,-0.103,-0.295
09:48:25.428,-0.103,-0.295
09:48:25.43,-0.103,-0.295
09:48:25.432,-0.103,-0.328
09:48:25.434,-0.103,-0.328
09:48:25.436,-0.139,-0.328
09:48:25.438,-0.139,-0.328
09:48:25.44,-0.139,-0.350
09:48:25.442,-0.139,-0.350
09:48:25.444,-0.139,-0.350
09:48:25.446,-0.174,-0.350
09:48:25.448,-0.174,-0.372
09:48:25.45,-0.174,-0.372
09:48:25.452,-0.174,-0.372
09:48:25.454,-0.174,-0.372
09:48:25.456,-0.174,-0.390
09:48:25.458,-0.174,-0.390
09:48:25.46,-0.174,-0.390
09:48:25.462,-0.174,-0.390
09:48:25.464,-0.174,-0.395
09:48:25.466,-0.174,-0.395
09:48:25.468,-0.174,-0.395
09:48:25.47,-0.174,-0.395
09:48:25.472,-0.174,-0.406
09:48:25.474,-0.174,-0.406
09:48:25.476,-0.174,-0.406
09:48:25.478,-0.174,-0.406
09:48:25.48,-0.174,-0.406
09:48:25.482,-0.174,-0.406
09:48:25.484,-0.174,-0.406
09:48:25.486,-0.174,-0.406
09:48:25.488,-0.174,-0.406
09:48:25.49,-0.210,-0.406
09:48:25.492,-0.174,-0.406
09:48:25.494,-0.174,-0.406
09:48:25.496,-0.174,-0.401
09:48:25.498,-0.174,-0.401
09:48:25.5,-0.174,-0.401
09:48:25.502,-0.174,-0.401
09:48:25.504,-0.174,-0.401
09:48:25.506,-0.174,-0.401
09:48:25.508,-0.174,-0.401
09:48:25.51,-0.174,-0.401
09:48:25.512,0.003,-0.395
09:48:25.514,0.003,-0.395
09:48:25.516,0.003,-0.395
09:48:25.518,0.003,-0.395
09:48:25.52,0.003,-0.395
09:48:25.522,0.003,-0.395
09:48:25.524,0.003,-0.395
09:48:25.526,0.003,-0.395
09:48:25.528,0.003,-0.390
09:48:25.53,0.003,-0.390
09:48:25.532,0.003,-0.390
09:48:25.534,0.003,-0.390
09:48:25.536,0.003,-0.384
09:48:25.538,0.003,-0.384
09:48:25.54,0.003,-0.384
09:48:25.542,0.003,-0.384
09:48:25.544,0.003,-0.384
09:48:25.546,0.003,-0.384
09:48:25.548,0.003,-0.384
09:48:25.55,0.003,-0.384
09:48:25.552,0.003,-0.384
09:48:25.554,0.003,-0.384
09:48:25.556,0.003,-0.384
09:48:25.558,0.003,-0.384
09:48:25.56,0.003,-0.384
09:48:25.562,0.003,-0.384
09:48:25.564,0.003,-0.384
09:48:25.566,0.003,-0.384
09:48:25.568,0.003,-0.379
09:48:25.57,0.003,-0.379
09:48:25.572,0.003,-0.379
09:48:25.574,0.003,-0.379
09:48:25.576,0.003,-0.372
09:48:25.578,0.003,-0.372
09:48:25.58,0.003,-0.372
09:48:25.582,0.003,-0.372
09:48:25.584,0.003,-0.372
09:48:25.586,0.003,-0.372
09:48:25.588,0.003,-0.372
09:48:25.59,0.003,-0.372
09:48:25.592,0.003,-0.384
09:48:25.594,0.003,-0.384
09:48:25.596,0.003,-0.384
09:48:25.598,0.003,-0.384
09:48:25.6,0.003,-0.384
09:48:25.602,0.003,-0.384
09:48:25.604,0.003,-0.384
09:48:25.606,0.003,-0.384
09:48:25.608,0.003,-0.379
09:48:25.61,0.003,-0.379
09:48:25.612,0.003,-0.379
09:48:25.614,0.003,-0.379
09:48:25.616,0.003,-0.379
09:48:25.618,0.003,-0.379
09:48:25.62,0.003,-0.379
09:48:25.622,0.003,-0.379
09:48:25.624,0.003,-0.384
09:48:25.626,0.003,-0.384
09:48:25.628,0.003,-0.384
09:48:25.63,0.003,-0.384
09:48:25.632,0.003,-0.395
09:48:25.634,0.003,-0.395
09:48:25.636,0.003,-0.395
09:48:25.638,0.003,-0.395
09:48:25.64,0.003,-0.390
09:48:25.642,0.003,-0.390
09:48:25.644,0.003,-0.390
09:48:25.646,0.003,-0.390
09:48:25.648,0.003,-0.395
09:48:25.65,0.003,-0.395
09:48:25.652,0.003,-0.395
09:48:25.654,0.003,-0.395
09:48:25.656,0.003,-0.401
09:48:25.658,0.003,-0.401
09:48:25.66,0.003,-0.401
09:48:25.662,0.003,-0.401
09:48:25.664,0.003,-0.401
09:48:25.666,0.003,-0.401
09:48:25.668,0.003,-0.401
09:48:25.67,0.003,-0.401
09:48:25.672,0.003,-0.401
09:48:25.674,0.003,-0.401
09:48:25.676,0.003,-0.401
09:48:25.678,0.003,-0.401
09:48:25.68,0.003,-0.401
09:48:25.682,0.003,-0.401
09:48:25.684,0.003,-0.401
09:48:25.686,0.003,-0.401
09:48:25.688,0.003,-0.406
09:48:25.69,0.003,-0.406
09:48:25.692,0.003,-0.406
09:48:25.694,0.003,-0.406
09:48:25.696,0.003,-0.406
09:48:25.698,0.003,-0.406
09:48:25.7,0.003,-0.406
09:48:25.702,0.003,-0.406
09:48:25.704,0.003,-0.406
09:48:25.706,0.003,-0.406
09:48:25.708,0.003,-0.406
09:48:25.71,0.003,-0.406
09:48:25.712,0.003,-0.411
09:48:25.714,0.003,-0.411
09:48:25.716,0.003,-0.411
09:48:25.718,0.003,-0.411
09:48:25.72,0.003,-0.406
09:48:25.722,0.003,-0.406
09:48:25.724,0.003,-0.406
09:48:25.726,0.003,-0.406
09:48:25.728,0.003,-0.411
09:48:25.73,0.003,-0.411
09:48:25.732,0.003,-0.411
09:48:25.734,0.003,-0.411
09:48:25.736,0.003,-0.417
09:48:25.738,0.003,-0.417
09:48:25.74,0.003,-0.417
09:48:25.742,0.003,-0.417
09:48:25.744,0.003,-0.411
09:48:25.746,0.003,-0.411
09:48:25.748,0.003,-0.411
09:48:25.75,0.003,-0.411
09:48:25.752,0.003,-0.417
09:48:25.754,0.003,-0.417
09:48:25.756,0.003,-0.417
09:48:25.758,0.003,-0.417
09:48:25.76,0.003,-0.423
09:48:25.762,0.003,-0.423
09:48:25.764,0.003,-0.423
09:48:25.766,0.003,-0.423
09:48:25.768,0.003,-0.417
09:48:25.77,0.003,-0.417
09:48:25.772,0.003,-0.417
09:48:25.774,0.003,-0.417
09:48:25.776,0.003,-0.417
09:48:25.778,0.003,-0.417
09:48:25.78,0.003,-0.417
09:48:25.782,0.003,-0.417
09:48:25.784,0.003,-0.417
09:48:25.786,0.003,-0.417
09:48:25.788,0.003,-0.417
09:48:25.79,0.003,-0.417
09:48:25.792,0.003,-0.417
09:48:25.794,0.003,-0.417
09:48:25.796,0.003,-0.417
09:48:25.798,0.003,-0.417
09:48:25.8,0.003,-0.417
09:48:25.802,0.003,-0.417
09:48:25.804,0.003,-0.417
09:48:25.806,0.003,-0.417
09:48:25.808,0.003,-0.406
09:48:25.81,0.003,-0.406
09:48:25.812,0.003,-0.406
09:48:25.814,0.003,-0.406
09:48:25.816,0.003,-0.395
09:48:25.818,0.003,-0.395
09:48:25.82,0.003,-0.395
09:48:25.822,0.003,-0.395
09:48:25.824,0.003,-0.379
09:48:25.826,0.003,-0.379
09:48:25.828,0.003,-0.379
09:48:25.83,0.003,-0.379
09:48:25.832,0.003,-0.356
09:48:25.834,0.003,-0.356
09:48:25.836,0.003,-0.356
09:48:25.838,0.003,-0.356
09:48:25.84,0.003,-0.317
09:48:25.842,0.003,-0.317
09:48:25.844,0.003,-0.317
09:48:25.846,0.003,-0.317
09:48:25.848,0.003,-0.267
09:48:25.85,0.003,-0.267
09:48:25.852,0.003,-0.267
09:48:25.854,0.003,-0.267
09:48:25.856,0.003,-0.206
09:48:25.858,0.003,-0.206
09:48:25.86,0.003,-0.206
09:48:25.862,0.003,-0.206
09:48:25.864,0.003,-0.122
09:48:25.866,0.003,-0.122
09:48:25.868,0.003,-0.122
09:48:25.87,0.003,-0.122
09:48:25.872,0.003,-0.039
09:48:25.874,0.003,-0.039
09:48:25.876,0.003,-0.039
09:48:25.878,0.003,-0.039
09:48:25.88,0.003,0.061
09:48:25.882,0.003,0.061
09:48:25.884,0.003,0.061
09:48:25.886,0.003,0.061
09:48:25.888,0.003,0.162
09:48:25.89,0.003,0.162
09:48:25.892,0.003,0.162
09:48:25.894,0.003,0.162
09:48:25.896,0.003,0.256
09:48:25.898,0.003,0.256
09:48:25.9,0.003,0.256
09:48:25.902,0.003,0.256
09:48:25.904,0.003,0.350
09:48:25.906,0.003,0.350
09:48:25.908,0.003,0.350
09:48:25.91,0.003,0.350
09:48:25.912,0.003,0.434
09:48:25.914,0.003,0.434
09:48:25.916,0.003,0.434
09:48:25.918,0.003,0.434
09:48:25.92,0.003,0.506
09:48:25.922,0.003,0.506
09:48:25.924,0.003,0.506
09:48:25.926,0.003,0.506
09:48:25.928,0.003,0.562
09:48:25.93,0.003,0.562
09:48:25.932,0.003,0.562
09:48:25.934,0.003,0.562
09:48:25.936,0.003,0.601
09:48:25.938,0.003,0.601
09:48:25.94,0.003,0.601
09:48:25.942,0.003,0.601
09:48:25.944,0.003,0.628
09:48:25.946,0.003,0.628
09:48:25.948,0.003,0.628
09:48:25.95,0.003,0.628
09:48:25.952,0.003,0.645
09:48:25.954,0.003,0.645
09:48:25.956,0.003,0.645
09:48:25.958,0.003,0.645
09:48:25.96,0.003,0.656
09:48:25.962,0.003,0.656
09:48:25.964,0.003,0.656
09:48:25.966,0.003,0.656
09:48:25.968,0.003,0.651
09:48:25.97,0.003,0.651
09:48:25.972,0.003,0.651
09:48:25.974,0.003,0.651
09:48:25.976,0.003,0.639
09:48:25.978,0.003,0.639
09:48:25.98,0.003,0.639
09:48:25.982,0.003,0.639
09:48:25.984,0.003,0.618
09:48:25.986,0.003,0.618
09:48:25.988,0.003,0.618
09:48:25.99,0.003,0.618
09:48:25.992,0.003,0.590
09:48:25.994,0.003,0.590
09:48:25.996,0.003,0.590
09:48:25.998,0.003,0.590
09:48:26,0.003,0.568
09:48:26.002,0.003,0.568
09:48:26.004,0.003,0.568
09:48:26.006,0.003,0.568
09:48:26.008,0.003,0.534
09:48:26.01,0.003,0.534
09:48:26.012,0.003,0.534
09:48:26.014,0.003,0.534
09:48:26.016,0.003,0.500
09:48:26.018,0.003,0.500
09:48:26.02,0.003,0.500
09:48:26.022,0.003,0.500
09:48:26.024,-0.068,0.456
09:48:26.026,-0.068,0.456
09:48:26.028,-0.068,0.456
09:48:26.03,-0.068,0.456
09:48:26.032,-0.068,0.417
09:48:26.034,-0.068,0.417
09:48:26.036,-0.068,0.417
09:48:26.038,-0.068,0.417
09:48:26.04,-0.068,0.378
09:48:26.042,-0.068,0.378
09:48:26.044,-0.068,0.378
09:48:26.046,-0.068,0.378
09:48:26.048,-0.068,0.334
09:48:26.05,-0.068,0.334
09:48:26.052,-0.068,0.334
09:48:26.054,-0.068,0.334
09:48:26.056,-0.068,0.295
09:48:26.058,-0.068,0.295
09:48:26.06,-0.068,0.295
09:48:26.062,-0.068,0.295
09:48:26.064,-0.068,0.251
09:48:26.066,-0.068,0.251
09:48:26.068,-0.068,0.251
09:48:26.07,-0.068,0.251
09:48:26.072,-0.068,0.206
09:48:26.074,-0.068,0.206
09:48:26.076,-0.068,0.206
09:48:26.078,-0.068,0.206
09:48:26.08,-0.068,0.167
09:48:26.082,-0.068,0.167
09:48:26.084,-0.068,0.167
09:48:26.086,-0.068,0.167
09:48:26.088,-0.068,0.134
09:48:26.09,-0.068,0.134
09:48:26.092,-0.068,0.134
09:48:26.094,-0.068,0.134
09:48:26.096,-0.068,0.100
09:48:26.098,-0.068,0.100
09:48:26.1,-0.068,0.100
09:48:26.102,-0.068,0.100
09:48:26.104,-0.068,0.067
09:48:26.106,-0.068,0.067
09:48:26.108,-0.032,0.067
09:48:26.11,-0.068,0.067
09:48:26.112,-0.068,0.044
09:48:26.114,-0.068,0.044
09:48:26.116,-0.032,0.044
09:48:26.118,-0.068,0.044
09:48:26.12,-0.068,0.022
09:48:26.122,-0.032,0.022
09:48:26.124,-0.032,0.022
09:48:26.126,-0.068,0.022
09:48:26.128,-0.068,0.000
09:48:26.13,-0.032,0.000
09:48:26.132,-0.032,0.000
09:48:26.134,-0.032,0.000
09:48:26.136,-0.032,-0.017
09:48:26.138,-0.032,-0.017
09:48:26.14,-0.032,-0.017
09:48:26.142,-0.032,-0.017
09:48:26.144,-0.032,-0.039
09:48:26.146,-0.032,-0.039
09:48:26.148,-0.032,-0.039
09:48:26.15,-0.032,-0.039
09:48:26.152,-0.032,-0.050
09:48:26.154,-0.032,-0.050
09:48:26.156,-0.032,-0.050
09:48:26.158,-0.032,-0.050
09:48:26.16,-0.032,-0.072
09:48:26.162,-0.032,-0.072
09:48:26.164,-0.032,-0.072
09:48:26.166,-0.032,-0.072
09:48:26.168,-0.032,-0.084
09:48:26.17,-0.032,-0.084
09:48:26.172,-0.032,-0.084
09:48:26.174,-0.032,-0.084
09:48:26.176,-0.032,-0.100
09:48:26.178,-0.032,-0.100
09:48:26.18,-0.032,-0.100
09:48:26.182,-0.032,-0.100
09:48:26.184,-0.032,-0.117
09:48:26.186,-0.032,-0.117
09:48:26.188,-0.032,-0.117
09:48:26.19,-0.032,-0.117
09:48:26.192,-0.032,-0.122
09:48:26.194,-0.032,-0.122
09:48:26.196,-0.032,-0.122
09:48:26.198,-0.032,-0.122
09:48:26.2,-0.032,-0.139
09:48:26.202,-0.032,-0.139
09:48:26.204,-0.032,-0.139
09:48:26.206,-0.032,-0.139
09:48:26.208,-0.032,-0.156
09:48:26.21,-0.032,-0.156
09:48:26.212,-0.032,-0.156
09:48:26.214,-0.032,-0.156
09:48:26.216,-0.032,-0.172
09:48:26.218,-0.032,-0.172
09:48:26.22,-0.032,-0.172
09:48:26.222,-0.032,-0.172
09:48:26.224,-0.032,-0.189
09:48:26.226,-0.032,-0.189
09:48:26.228,-0.032,-0.189
09:48:26.23,-0.032,-0.189
09:48:26.232,-0.032,-0.206
09:48:26.234,-0.032,-0.206
09:48:26.236,-0.032,-0.206
09:48:26.238,-0.032,-0.206
09:48:26.24,-0.032,-0.228
09:48:26.242,-0.032,-0.228
09:48:26.244,-0.032,-0.228
09:48:26.246,-0.032,-0.228
09:48:26.248,-0.032,-0.239
09:48:26.25,-0.032,-0.239
09:48:26.252,-0.032,-0.239
09:48:26.254,-0.032,-0.239
09:48:26.256,-0.032,-0.256
09:48:26.258,-0.032,-0.256
09:48:26.26,-0.032,-0.256
09:48:26.262,-0.032,-0.256
09:48:26.264,-0.032,-0.267
09:48:26.266,-0.032,-0.267
09:48:26.268,-0.032,-0.267
09:48:26.27,-0.032,-0.267
09:48:26.272,-0.032,-0.289
09:48:26.274,-0.032,-0.289
09:48:26.276,-0.032,-0.289
09:48:26.278,-0.032,-0.289
09:48:26.28,-0.032,-0.300
09:48:26.282,-0.032,-0.300
09:48:26.284,-0.032,-0.300
09:48:26.286,-0.032,-0.300
09:48:26.288,0.003,-0.317
09:48:26.29,-0.032,-0.317
09:48:26.292,-0.032,-0.317
09:48:26.294,-0.032,-0.317
09:48:26.296,-0.032,-0.328
09:48:26.298,0.003,-0.328
09:48:26.3,-0.032,-0.328
09:48:26.302,0.003,-0.328
09:48:26.304,0.003,-0.345
09:48:26.306,0.003,-0.345
09:48:26.308,0.003,-0.345
09:48:26.31,0.003,-0.345
09:48:26.312,0.003,-0.356
09:48:26.314,0.003,-0.356
09:48:26.316,0.003,-0.356
09:48:26.318,-0.032,-0.356
09:48:26.32,0.003,-0.361
09:48:26.322,0.003,-0.361
09:48:26.324,0.003,-0.361
09:48:26.326,0.003,-0.361
09:48:26.328,0.003,-0.379
09:48:26.33,0.003,-0.379
09:48:26.332,0.003,-0.379
09:48:26.334,0.003,-0.379
09:48:26.336,0.003,-0.384
09:48:26.338,0.003,-0.384
09:48:26.34,0.003,-0.384
09:48:26.342,0.003,-0.384
09:48:26.344,0.003,-0.395
09:48:26.346,0.003,-0.395
09:48:26.348,0.037,-0.395
09:48:26.35,0.464,-0.395
09:48:26.352,0.746,-0.395
09:48:26.354,0.889,-0.395
09:48:26.356,0.960,-0.395
09:48:26.358,0.995,-0.395
09:48:26.36,1.029,-0.401
09:48:26.362,1.065,-0.401
09:48:26.364,1.065,-0.401
09:48:26.366,1.065,-0.401
09:48:26.368,1.029,-0.406
09:48:26.37,1.029,-0.406
09:48:26.372,1.029,-0.406
09:48:26.374,1.029,-0.406
09:48:26.376,1.029,-0.411
09:48:26.378,0.995,-0.411
09:48:26.38,0.995,-0.411
09:48:26.382,0.995,-0.411
09:48:26.384,0.995,-0.411
09:48:26.386,0.995,-0.411
09:48:26.388,0.995,-0.411
09:48:26.39,0.995,-0.411
09:48:26.392,0.995,-0.417
09:48:26.394,0.960,-0.417
09:48:26.396,0.960,-0.417
09:48:26.398,0.960,-0.417
09:48:26.4,0.960,-0.417
09:48:26.402,0.960,-0.417
09:48:26.404,0.960,-0.417
09:48:26.406,0.960,-0.417
09:48:26.408,0.924,-0.423
09:48:26.41,0.924,-0.423
09:48:26.412,0.924,-0.423
09:48:26.414,0.924,-0.423
09:48:26.416,0.924,-0.423
09:48:26.418,0.924,-0.423
09:48:26.42,0.924,-0.423
09:48:26.422,0.889,-0.423
09:48:26.424,0.889,-0.428
09:48:26.426,0.889,-0.428
09:48:26.428,0.889,-0.428
09:48:26.43,0.889,-0.428
09:48:26.432,0.889,-0.428
09:48:26.434,0.853,-0.428
09:48:26.436,0.853,-0.428
09:48:26.438,0.853,-0.428
09:48:26.44,0.853,-0.428
09:48:26.442,0.853,-0.428
09:48:26.444,0.853,-0.428
09:48:26.446,0.853,-0.428
09:48:26.448,0.853,-0.423
09:48:26.45,0.817,-0.423
09:48:26.452,0.817,-0.423
09:48:26.454,0.817,-0.423
09:48:26.456,0.817,-0.428
09:48:26.458,0.817,-0.428
09:48:26.46,0.817,-0.428
09:48:26.462,0.817,-0.428
09:48:26.464,0.817,-0.434
09:48:26.466,0.782,-0.434
09:48:26.468,0.782,-0.434
09:48:26.47,0.782,-0.434
09:48:26.472,0.782,-0.434
09:48:26.474,0.782,-0.434
09:48:26.476,0.782,-0.434
09:48:26.478,0.782,-0.434
09:48:26.48,0.782,-0.440
09:48:26.482,0.746,-0.440
09:48:26.484,0.782,-0.440
09:48:26.486,0.746,-0.440
09:48:26.488,0.746,-0.434
09:48:26.49,0.746,-0.434
09:48:26.492,0.746,-0.434
09:48:26.494,0.746,-0.434
09:48:26.496,0.746,-0.434
09:48:26.498,0.711,-0.434
09:48:26.5,0.711,-0.434
09:48:26.502,0.711,-0.434
09:48:26.504,0.711,-0.434
09:48:26.506,0.711,-0.434
09:48:26.508,0.711,-0.434
09:48:26.51,0.711,-0.434
09:48:26.512,0.711,-0.434
09:48:26.514,0.711,-0.434
09:48:26.516,0.711,-0.434
09:48:26.518,0.711,-0.434
09:48:26.52,0.675,-0.434
09:48:26.522,0.675,-0.434
09:48:26.524,0.675,-0.434
09:48:26.526,0.675,-0.434
09:48:26.528,0.675,-0.434
09:48:26.53,0.675,-0.434
09:48:26.532,0.675,-0.434
09:48:26.534,0.675,-0.434
09:48:26.536,0.675,-0.428
09:48:26.538,0.675,-0.428
09:48:26.54,0.675,-0.428
09:48:26.542,0.640,-0.428
09:48:26.544,0.640,-0.423
09:48:26.546,0.640,-0.423
09:48:26.548,0.640,-0.423
09:48:26.55,0.640,-0.423
09:48:26.552,0.640,-0.411
09:48:26.554,0.640,-0.411
09:48:26.556,0.640,-0.411
09:48:26.558,0.604,-0.411
09:48:26.56,0.604,-0.390
09:48:26.562,0.604,-0.390
09:48:26.564,0.604,-0.390
09:48:26.566,0.604,-0.390
09:48:26.568,0.604,-0.356
09:48:26.57,0.604,-0.356
09:48:26.572,0.604,-0.356
09:48:26.574,0.604,-0.356
09:48:26.576,0.604,-0.306
09:48:26.578,0.604,-0.306
09:48:26.58,0.604,-0.306
09:48:26.582,0.604,-0.306
09:48:26.584,0.569,-0.245
09:48:26.586,0.569,-0.245
09:48:26.588,0.569,-0.245
09:48:26.59,0.569,-0.245
09:48:26.592,0.569,-0.172
09:48:26.594,0.569,-0.172
09:48:26.596,0.569,-0.172
09:48:26.598,0.533,-0.172
09:48:26.6,0.533,-0.084
09:48:26.602,0.533,-0.084
09:48:26.604,0.533,-0.084
09:48:26.606,0.533,-0.084
09:48:26.608,0.533,0.017
09:48:26.61,0.533,0.017
09:48:26.612,0.533,0.017
09:48:26.614,0.533,0.017
09:48:26.616,0.533,0.111
09:48:26.618,0.533,0.111
09:48:26.62,0.533,0.111
09:48:26.622,0.533,0.111
09:48:26.624,0.533,0.211
09:48:26.626,0.499,0.211
09:48:26.628,0.499,0.211
09:48:26.63,0.499,0.211
09:48:26.632,0.499,0.306
09:48:26.634,0.499,0.306
09:48:26.636,0.428,0.306
09:48:26.638,0.003,0.306
09:48:26.64,-0.246,0.378
09:48:26.642,-0.388,0.378
09:48:26.644,-0.494,0.378
09:48:26.646,-0.528,0.378
09:48:26.648,-0.564,0.445
09:48:26.65,-0.564,0.445
09:48:26.652,-0.564,0.445
09:48:26.654,-0.564,0.445
09:48:26.656,-0.564,0.500
09:48:26.658,-0.564,0.500
09:48:26.66,-0.564,0.500
09:48:26.662,-0.564,0.500
09:48:26.664,-0.564,0.534
09:48:26.666,-0.564,0.534
09:48:26.668,-0.564,0.534
09:48:26.67,-0.564,0.534
09:48:26.672,-0.528,0.562
09:48:26.674,-0.528,0.562
09:48:26.676,-0.528,0.562
09:48:26.678,-0.528,0.562
09:48:26.68,-0.528,0.579
09:48:26.682,-0.528,0.579
09:48:26.684,-0.528,0.579
09:48:26.686,-0.528,0.579
09:48:26.688,-0.528,0.579
09:48:26.69,-0.528,0.579
09:48:26.692,-0.528,0.579
09:48:26.694,-0.528,0.579
09:48:26.696,-0.528,0.573
09:48:26.698,-0.494,0.573
09:48:26.7,-0.528,0.573
09:48:26.702,-0.494,0.573
09:48:26.704,-0.494,0.568
09:48:26.706,-0.494,0.568
09:48:26.708,-0.494,0.568
09:48:26.71,-0.494,0.568
09:48:26.712,-0.494,0.556
09:48:26.714,-0.494,0.556
09:48:26.716,-0.494,0.556
09:48:26.718,-0.494,0.556
09:48:26.72,-0.494,0.534
09:48:26.722,-0.494,0.534
09:48:26.724,-0.494,0.534
09:48:26.726,-0.459,0.534
09:48:26.728,-0.459,0.506
09:48:26.73,-0.459,0.506
09:48:26.732,-0.459,0.506
09:48:26.734,-0.459,0.506
09:48:26.736,-0.459,0.478
09:48:26.738,-0.459,0.478
09:48:26.74,-0.459,0.478
09:48:26.742,-0.459,0.478
09:48:26.744,-0.459,0.451
09:48:26.746,-0.459,0.451
09:48:26.748,-0.459,0.451
09:48:26.75,-0.423,0.451
09:48:26.752,-0.423,0.406
09:48:26.754,-0.423,0.406
09:48:26.756,-0.423,0.406
09:48:26.758,-0.423,0.406
09:48:26.76,-0.423,0.372
09:48:26.762,-0.423,0.372
09:48:26.764,-0.423,0.372
09:48:26.766,-0.423,0.372
09:48:26.768,-0.423,0.328
09:48:26.77,-0.423,0.328
09:48:26.772,-0.423,0.328
09:48:30.322,-0.068,0.602
09:48:30.324,-0.068,0.602
09:48:30.326,-0.068,0.602
09:48:30.328,-0.068,0.575
09:48:30.33,-0.068,0.575
09:48:30.332,-0.068,0.575
09:48:30.334,-0.068,0.575
09:48:30.336,-0.068,0.542
09:48:30.338,-0.068,0.542
09:48:30.34,-0.068,0.542
09:48:30.342,-0.068,0.542
09:48:30.344,-0.068,0.499
09:48:30.346,-0.068,0.499
09:48:30.348,-0.068,0.499
09:48:30.35,-0.068,0.499
09:48:30.352,-0.068,0.450
09:48:30.354,-0.068,0.450
09:48:30.356,-0.068,0.450
09:48:30.358,-0.103,0.450
09:48:30.36,-0.103,0.407
09:48:30.362,-0.103,0.407
09:48:30.364,-0.103,0.407
09:48:30.366,-0.103,0.407
09:48:30.368,-0.103,0.358
09:48:30.37,-0.103,0.358
09:48:30.372,-0.103,0.358
09:48:30.374,-0.103,0.358
09:48:30.376,-0.103,0.315
09:48:30.378,-0.068,0.315
09:48:30.38,-0.068,0.315
09:48:30.382,-0.103,0.315
09:48:30.384,-0.103,0.266
09:48:30.386,-0.103,0.266
09:48:30.388,-0.103,0.266
09:48:30.39,-0.103,0.266
09:48:30.392,-0.068,0.223
09:48:30.394,-0.068,0.223
09:48:30.396,-0.032,0.223
09:48:30.398,-0.032,0.223
09:48:30.4,-0.032,0.173
09:48:30.402,-0.032,0.173
09:48:30.404,-0.032,0.173
09:48:30.406,-0.032,0.173
09:48:30.408,-0.032,0.141
09:48:30.41,0.003,0.141
09:48:30.412,0.003,0.141
09:48:30.414,0.003,0.141
09:48:30.416,0.037,0.108
09:48:30.418,0.037,0.108
09:48:30.42,0.037,0.108
09:48:30.422,0.037,0.108
09:48:30.424,0.037,0.090
09:48:30.426,0.003,0.090
09:48:30.428,0.003,0.090
09:48:30.43,-0.032,0.090
09:48:30.432,-0.068,0.062
09:48:30.434,-0.139,0.062
09:48:30.436,-0.210,0.062
09:48:30.438,-0.317,0.062
09:48:30.44,-0.388,0.028
09:48:30.442,-0.459,0.028
09:48:30.444,-0.564,0.028
09:48:30.446,-0.670,0.028
09:48:30.448,-0.848,-0.007
09:48:30.45,-1.095,-0.007
09:48:30.452,-1.273,-0.007
09:48:30.454,-1.451,-0.007
09:48:30.456,-1.556,-0.035
09:48:30.458,-1.591,-0.035
09:48:30.46,-1.662,-0.035
09:48:30.462,-1.662,-0.035
09:48:30.464,-1.662,-0.049
09:48:30.466,-1.662,-0.049
09:48:30.468,-1.627,-0.049
09:48:30.47,-1.627,-0.049
09:48:30.472,-1.591,-0.070
09:48:30.474,-1.556,-0.070
09:48:30.476,-1.486,-0.070
09:48:30.478,-1.415,-0.070
09:48:30.48,-1.309,-0.091
09:48:30.482,-1.202,-0.091
09:48:30.484,-1.095,-0.091
09:48:30.486,-0.990,-0.091
09:48:30.488,-0.919,-0.112
09:48:30.49,-0.848,-0.112
09:48:30.492,-0.777,-0.112
09:48:30.494,-0.670,-0.112
09:48:30.496,-0.599,-0.133
09:48:30.498,-0.564,-0.133
09:48:30.5,-0.528,-0.133
09:48:30.502,-0.494,-0.133
09:48:30.504,-0.459,-0.153
09:48:30.506,-0.423,-0.153
09:48:30.508,-0.388,-0.153
09:48:30.51,-0.388,-0.153
09:48:30.512,-0.352,-0.174
09:48:30.514,-0.317,-0.174
09:48:30.516,-0.281,-0.174
09:48:30.518,-0.246,-0.174
09:48:30.52,-0.246,-0.189
09:48:30.522,-0.210,-0.189
09:48:30.524,-0.174,-0.189
09:48:30.526,-0.139,-0.189
09:48:30.528,-0.139,-0.216
09:48:30.53,-0.103,-0.216
09:48:30.532,-0.103,-0.216
09:48:30.534,-0.068,-0.216
09:48:30.536,-0.032,-0.237
09:48:30.538,0.003,-0.237
09:48:30.54,0.037,-0.237
09:48:30.542,0.037,-0.237
09:48:30.544,0.073,-0.251
09:48:30.546,0.073,-0.251
09:48:30.548,0.073,-0.251
09:48:30.55,0.108,-0.251
09:48:30.552,0.108,-0.272
09:48:30.554,0.108,-0.272
09:48:30.556,0.108,-0.272
09:48:30.558,0.144,-0.272
09:48:30.56,0.179,-0.286
09:48:30.562,0.179,-0.286
09:48:30.564,0.179,-0.286
09:48:30.566,0.179,-0.286
09:48:30.568,0.215,-0.307
09:48:30.57,0.215,-0.307
09:48:30.572,0.215,-0.307
09:48:30.574,0.215,-0.307
09:48:30.576,0.250,-0.321
09:48:30.578,0.250,-0.321
09:48:30.58,0.250,-0.321
09:48:30.582,0.286,-0.321
09:48:30.584,0.286,-0.348
09:48:30.586,0.321,-0.348
09:48:30.588,0.357,-0.348
09:48:30.59,0.357,-0.348
09:48:30.592,0.357,-0.355
09:48:30.594,0.393,-0.355
09:48:30.596,0.428,-0.355
09:48:30.598,0.464,-0.355
09:48:30.6,0.464,-0.369
09:48:30.602,0.499,-0.369
09:48:30.604,0.499,-0.369
09:48:30.606,0.533,-0.369
09:48:30.608,0.533,-0.391
09:48:30.61,0.569,-0.391
09:48:30.612,0.604,-0.391
09:48:30.614,0.640,-0.391
09:48:30.616,0.640,-0.405
09:48:30.618,0.675,-0.405
09:48:30.62,0.675,-0.405
09:48:30.622,0.711,-0.405
09:48:30.624,0.746,-0.418
09:48:30.626,0.782,-0.418
09:48:30.628,0.782,-0.418
09:48:30.63,0.817,-0.418
09:48:30.632,0.853,-0.432
09:48:30.634,0.853,-0.432
09:48:30.636,0.889,-0.432
09:48:30.638,0.924,-0.432
09:48:30.64,0.924,-0.439
09:48:30.642,0.960,-0.439
09:48:30.644,0.995,-0.439
09:48:30.646,0.995,-0.439
09:48:30.648,0.995,-0.460
09:48:30.65,1.029,-0.460
09:48:30.652,1.029,-0.460
09:48:30.654,0.995,-0.460
09:48:30.656,0.995,-0.467
09:48:30.658,0.995,-0.467
09:48:30.66,0.995,-0.467
09:48:30.662,0.960,-0.467
09:48:30.664,0.924,-0.481
09:48:30.666,0.924,-0.481
09:48:30.668,0.889,-0.481
09:48:30.67,0.889,-0.481
09:48:30.672,0.853,-0.481
09:48:30.674,0.817,-0.481
09:48:30.676,0.817,-0.481
09:48:30.678,0.782,-0.481
09:48:30.68,0.782,-0.488
09:48:30.682,0.746,-0.488
09:48:30.684,0.711,-0.488
09:48:30.686,0.640,-0.488
09:48:30.688,0.640,-0.488
09:48:30.69,0.569,-0.488
09:48:30.692,0.533,-0.488
09:48:30.694,0.533,-0.488
09:48:30.696,0.499,-0.488
09:48:30.698,0.499,-0.488
09:48:30.7,0.464,-0.488
09:48:30.702,0.428,-0.488
09:48:30.704,0.393,-0.481
09:48:30.706,0.393,-0.481
09:48:30.708,0.357,-0.481
09:48:30.71,0.321,-0.481
09:48:30.712,0.250,-0.474
09:48:30.714,0.215,-0.474
09:48:30.716,0.179,-0.474
09:48:30.718,0.144,-0.474
09:48:30.72,0.108,-0.460
09:48:30.722,0.108,-0.460
09:48:30.724,0.108,-0.460
09:48:30.726,0.108,-0.460
09:48:30.728,0.073,-0.432
09:48:30.73,0.073,-0.432
09:48:30.732,0.037,-0.432
09:48:30.734,0.037,-0.432
09:48:30.736,0.003,-0.398
09:48:30.738,0.003,-0.398
09:48:30.74,0.003,-0.398
09:48:30.742,-0.032,-0.398
09:48:30.744,-0.032,-0.362
09:48:30.746,-0.032,-0.362
09:48:30.748,-0.068,-0.362
09:48:30.75,-0.068,-0.362
09:48:30.752,-0.103,-0.314
09:48:30.754,-0.068,-0.314
09:48:30.756,-0.068,-0.314
09:48:30.758,-0.068,-0.314
09:48:30.76,-0.103,-0.265
09:48:30.762,-0.103,-0.265
09:48:30.764,-0.139,-0.265
09:48:30.766,-0.139,-0.265
09:48:30.768,-0.139,-0.203
09:48:30.77,-0.139,-0.203
09:48:30.772,-0.139,-0.203
09:48:30.774,-0.139,-0.203
09:48:30.776,-0.139,-0.146
09:48:30.778,-0.139,-0.146
09:48:30.78,-0.174,-0.146
09:48:30.782,-0.139,-0.146
09:48:30.784,-0.139,-0.104
09:48:30.786,-0.139,-0.104
09:48:30.788,-0.139,-0.104
09:48:30.79,-0.139,-0.104
09:48:30.792,-0.139,-0.056
09:48:30.794,-0.139,-0.056
09:48:30.796,-0.139,-0.056
09:48:30.798,-0.139,-0.056
09:48:30.8,-0.139,-0.035
09:48:30.802,-0.174,-0.035
09:48:30.804,-0.174,-0.035
09:48:30.806,-0.174,-0.035
09:48:30.808,-0.174,-0.014
09:48:30.81,-0.174,-0.014
09:48:30.812,-0.174,-0.014
09:48:30.814,-0.174,-0.014
09:48:30.816,-0.174,0.000
09:48:30.818,-0.174,0.000
09:48:30.82,-0.174,0.000
09:48:30.822,-0.174,0.000
09:48:30.824,-0.174,0.000
09:48:30.826,-0.174,0.000
09:48:30.828,-0.174,0.000
09:48:30.83,-0.174,0.000
09:48:30.832,-0.174,-0.014
09:48:30.834,-0.174,-0.014
09:48:30.836,-0.139,-0.014
09:48:30.838,-0.139,-0.014
09:48:30.84,-0.139,-0.042
09:48:30.842,-0.139,-0.042
09:48:30.844,-0.174,-0.042
09:48:30.846,-0.139,-0.042
09:48:30.848,-0.139,-0.063
09:48:30.85,-0.139,-0.063
09:48:30.852,-0.139,-0.063
09:48:30.854,-0.139,-0.063
09:48:30.856,-0.103,-0.098
09:48:30.858,-0.103,-0.098
09:48:30.86,-0.103,-0.098
09:48:30.862,-0.103,-0.098
09:48:30.864,-0.103,-0.140
09:48:30.866,-0.103,-0.140
09:48:30.868,-0.139,-0.140
09:48:30.87,-0.139,-0.140
09:48:30.872,-0.139,-0.174
09:48:30.874,-0.139,-0.174
09:48:30.876,-0.139,-0.174
09:48:30.878,-0.139,-0.174
09:48:30.88,-0.139,-0.216
09:48:30.882,-0.139,-0.216
09:48:30.884,-0.174,-0.216
09:48:30.886,-0.174,-0.216
09:48:30.888,0.003,-0.251
09:48:30.89,0.003,-0.251
09:48:30.892,0.003,-0.251
09:48:30.894,0.003,-0.251
09:48:30.896,0.003,-0.293
09:48:30.898,0.003,-0.293
09:48:30.9,0.003,-0.293
09:48:30.902,0.003,-0.293
09:48:30.904,0.003,-0.321
09:48:30.906,0.003,-0.321
09:48:30.908,0.003,-0.321
09:48:30.91,0.003,-0.321
09:48:30.912,0.003,-0.348
09:48:30.914,0.003,-0.348
09:48:30.916,0.003,-0.348
09:48:30.918,0.003,-0.348
09:48:30.92,0.003,-0.377
09:48:30.922,0.003,-0.377
09:48:30.924,0.003,-0.377
09:48:30.926,0.003,-0.377
09:48:30.928,0.003,-0.391
09:48:30.93,0.003,-0.391
09:48:30.932,0.003,-0.391
09:48:30.934,0.003,-0.391
09:48:30.936,0.003,-0.474
09:48:30.938,0.003,-0.474
09:48:30.94,0.003,-0.474
09:48:30.942,0.003,-0.474
09:48:30.944,0.003,-0.488
09:48:30.946,0.003,-0.488
09:48:30.948,0.003,-0.488
09:48:30.95,0.003,-0.488
09:48:30.952,0.003,-0.495
09:48:30.954,0.003,-0.495
09:48:30.956,0.003,-0.495
09:48:30.958,0.003,-0.495
09:48:30.96,0.003,-0.495
09:48:30.962,0.003,-0.495
09:48:30.964,0.003,-0.495
09:48:30.966,0.003,-0.495
09:48:30.968,0.003,-0.495
09:48:30.97,0.003,-0.495
09:48:30.972,0.003,-0.495
09:48:30.974,0.003,-0.495
09:48:30.976,0.003,-0.495
09:48:30.978,0.003,-0.495
09:48:30.98,0.003,-0.495
09:48:30.982,0.003,-0.495
09:48:30.984,0.003,-0.495
09:48:30.986,0.003,-0.495
09:48:30.988,0.003,-0.495
09:48:30.99,0.003,-0.495
09:48:30.992,0.003,-0.495
09:48:30.994,0.003,-0.495
09:48:30.996,0.003,-0.495
09:48:30.998,0.003,-0.495
09:48:31,0.003,-0.488
09:48:31.002,0.003,-0.488
09:48:31.004,0.003,-0.488
09:48:31.006,0.003,-0.488
09:48:31.008,0.003,-0.481
09:48:31.01,0.003,-0.481
09:48:31.012,0.003,-0.481
09:48:31.014,0.003,-0.481
09:48:31.016,0.003,-0.488
09:48:31.018,0.003,-0.488
09:48:31.02,0.003,-0.488
09:48:31.022,0.003,-0.488
09:48:31.024,0.003,-0.481
09:48:31.026,0.003,-0.481
09:48:31.028,0.003,-0.481
09:48:31.03,0.003,-0.481
09:48:31.032,0.003,-0.474
09:48:31.034,0.003,-0.474
09:48:31.036,0.003,-0.474
09:48:31.038,0.003,-0.474
09:48:31.04,0.003,-0.474
09:48:31.042,0.003,-0.474
09:48:31.044,0.003,-0.474
09:48:31.046,0.003,-0.474
09:48:31.048,0.003,-0.474
09:48:31.05,0.003,-0.474
09:48:31.052,0.003,-0.474
09:48:31.054,0.003,-0.474
09:48:31.056,0.003,-0.467
09:48:31.058,0.003,-0.467
09:48:31.06,0.003,-0.467
09:48:31.062,0.003,-0.467
09:48:31.064,0.003,-0.467
09:48:31.066,0.003,-0.467
09:48:31.068,0.003,-0.467
09:48:31.07,0.003,-0.467
09:48:31.072,0.003,-0.467
09:48:31.074,0.003,-0.467
09:48:31.076,0.003,-0.467
09:48:31.078,0.003,-0.467
09:48:31.08,0.003,-0.474
09:48:31.082,0.003,-0.474
09:48:31.084,0.003,-0.474
09:48:31.086,0.003,-0.474
09:48:31.088,0.003,-0.481
09:48:31.09,0.003,-0.481
09:48:31.092,0.003,-0.481
09:48:31.094,0.003,-0.481
09:48:31.096,0.003,-0.474
09:48:31.098,0.003,-0.474
09:48:31.1,0.003,-0.474
09:48:31.102,0.003,-0.474
09:48:31.104,0.003,-0.481
09:48:31.106,0.003,-0.481
09:48:31.108,0.003,-0.481
09:48:31.11,0.003,-0.481
09:48:31.112,0.003,-0.488
09:48:31.114,0.003,-0.488
09:48:31.116,0.003,-0.488
09:48:31.118,0.003,-0.488
09:48:31.12,0.003,-0.495
09:48:31.122,0.003,-0.495
09:48:31.124,0.003,-0.495
09:48:31.126,0.003,-0.495
09:48:31.128,0.003,-0.488
09:48:31.13,0.003,-0.488
09:48:31.132,0.003,-0.488
09:48:31.134,0.003,-0.488
09:48:31.136,0.003,-0.495
09:48:31.138,0.003,-0.495
09:48:31.14,0.003,-0.495
09:48:31.142,0.003,-0.495
09:48:31.144,0.003,-0.502
09:48:31.146,0.003,-0.502
09:48:31.148,0.003,-0.502
09:48:31.15,0.003,-0.502
09:48:31.152,0.003,-0.502
09:48:31.154,0.003,-0.502
09:48:31.156,0.003,-0.502
09:48:31.158,0.003,-0.502
09:48:31.16,0.003,-0.508
09:48:31.162,0.003,-0.508
09:48:31.164,0.003,-0.508
09:48:31.166,0.003,-0.508
09:48:31.168,0.003,-0.502
09:48:31.17,0.003,-0.502
09:48:31.172,0.003,-0.502
09:48:31.174,0.003,-0.502
09:48:31.176,0.003,-0.502
09:48:31.178,0.003,-0.502
09:48:31.18,0.003,-0.502
09:48:31.182,0.003,-0.502
09:48:31.184,0.003,-0.495
09:48:31.186,0.003,-0.495
09:48:31.188,0.003,-0.495
09:48:31.19,0.003,-0.495
09:48:31.192,0.003,-0.481
09:48:31.194,0.003,-0.481
09:48:31.196,0.003,-0.481
09:48:31.198,0.003,-0.481
09:48:31.2,0.003,-0.460
09:48:31.202,0.003,-0.460
09:48:31.204,0.003,-0.460
09:48:31.206,0.003,-0.460
09:48:31.208,0.003,-0.425
09:48:31.21,0.003,-0.425
09:48:31.212,0.003,-0.425
09:48:31.214,0.003,-0.425
09:48:31.216,0.003,-0.369
09:48:31.218,0.003,-0.369
09:48:31.22,0.003,-0.369
09:48:31.222,0.003,-0.369
09:48:31.224,0.003,-0.306
09:48:31.226,0.003,-0.306
09:48:31.228,0.003,-0.306
09:48:31.23,0.003,-0.306
09:48:31.232,0.003,-0.216
09:48:31.234,0.003,-0.216
09:48:31.236,0.003,-0.216
09:48:31.238,0.003,-0.216
09:48:31.24,0.003,-0.126
09:48:31.242,0.003,-0.126
09:48:31.244,0.003,-0.126
09:48:31.246,0.003,-0.126
09:48:31.248,0.003,-0.014
09:48:31.25,0.003,-0.014
09:48:31.252,0.003,-0.014
09:48:31.254,0.003,-0.014
09:48:31.256,0.003,0.090
09:48:31.258,0.003,0.090
09:48:31.26,0.003,0.090
09:48:31.262,0.003,0.090
09:48:31.264,0.003,0.202
09:48:31.266,0.003,0.202
09:48:31.268,0.003,0.202
09:48:31.27,0.003,0.202
09:48:31.272,0.003,0.306
09:48:31.274,0.003,0.306
09:48:31.276,0.003,0.306
09:48:31.278,0.003,0.306
09:48:31.28,0.003,0.404
09:48:31.282,0.003,0.404
09:48:31.284,0.003,0.404
09:48:31.286,0.003,0.404
09:48:31.288,0.003,0.488
09:48:31.29,0.003,0.488
09:48:31.292,0.003,0.488
09:48:31.294,0.003,0.488
09:48:31.296,0.003,0.543
09:48:31.298,0.003,0.543
09:48:31.3,0.003,0.543
09:48:31.302,0.003,0.543
09:48:31.304,0.003,0.600
09:48:31.306,0.003,0.600
09:48:31.308,0.003,0.600
09:48:31.31,0.003,0.600
09:48:31.312,0.003,0.641
09:48:31.314,0.003,0.641
09:48:31.316,0.003,0.641
09:48:31.318,0.003,0.641
09:48:31.32,0.003,0.655
09:48:31.322,0.003,0.655
09:48:31.324,0.003,0.655
09:48:31.326,0.003,0.655
09:48:31.328,0.003,0.662
09:48:31.33,0.003,0.662
09:48:31.332,0.003,0.662
09:48:31.334,0.003,0.662
09:48:31.336,0.003,0.662
09:48:31.338,0.003,0.662
09:48:31.34,0.003,0.662
09:48:31.342,0.003,0.662
09:48:31.344,0.003,0.655
09:48:31.346,0.003,0.655
09:48:31.348,0.003,0.655
09:48:31.35,0.003,0.655
09:48:31.352,0.003,0.634
09:48:31.354,0.003,0.634
09:48:31.356,0.003,0.634
09:48:31.358,0.003,0.634
09:48:31.36,0.003,0.607
09:48:31.362,0.003,0.607
09:48:31.364,0.003,0.607
09:48:31.366,0.003,0.607
09:48:31.368,0.003,0.579
09:48:31.37,0.003,0.579
09:48:31.372,0.003,0.579
09:48:31.374,0.003,0.579
09:48:31.376,0.003,0.543
09:48:31.378,0.003,0.543
09:48:31.38,0.003,0.543
09:48:31.382,0.003,0.543
09:48:31.384,0.003,0.508
09:48:31.386,0.003,0.508
09:48:31.388,0.003,0.508
09:48:31.39,0.003,0.508
09:48:31.392,0.003,0.460
09:48:31.394,0.003,0.460
09:48:31.396,0.003,0.460
09:48:31.398,0.003,0.460
09:48:31.4,-0.068,0.411
09:48:31.402,-0.068,0.411
09:48:31.404,-0.068,0.411
09:48:31.406,-0.068,0.411
09:48:31.408,-0.068,0.362
09:48:31.41,-0.068,0.362
09:48:31.412,-0.068,0.362
09:48:31.414,-0.032,0.362
09:48:31.416,-0.068,0.299
09:48:31.418,-0.068,0.299
09:48:31.42,-0.032,0.299
09:48:31.422,-0.032,0.299
09:48:31.424,-0.068,0.251
09:48:31.426,-0.068,0.251
09:48:31.428,-0.032,0.251
09:48:31.43,-0.068,0.251
09:48:31.432,-0.032,0.188
09:48:31.434,-0.032,0.188
09:48:31.436,-0.032,0.188
09:48:31.438,-0.032,0.188
09:48:31.44,-0.032,0.146
09:48:31.442,-0.032,0.146
09:48:31.444,-0.032,0.146
09:48:31.446,-0.032,0.146
09:48:31.448,-0.032,0.076
09:48:31.45,-0.032,0.076
09:48:31.452,-0.032,0.076
09:48:31.454,-0.032,0.076
09:48:31.456,-0.032,0.035
09:48:31.458,-0.032,0.035
09:48:31.46,-0.032,0.035
09:48:31.462,-0.032,0.035
09:48:31.464,-0.032,0.000
09:48:31.466,-0.032,0.000
09:48:31.468,-0.032,0.000
09:48:31.47,-0.032,0.000
09:48:31.472,-0.032,-0.029
09:48:31.474,-0.032,-0.029
09:48:31.476,-0.032,-0.029
09:48:31.478,-0.032,-0.029
09:48:31.48,-0.032,-0.053
09:48:31.482,-0.032,-0.053
09:48:31.484,-0.032,-0.053
09:48:31.486,-0.032,-0.053
09:48:31.488,-0.032,-0.083
09:48:31.49,-0.032,-0.083
09:48:31.492,-0.032,-0.083
09:48:31.494,-0.032,-0.083
09:48:31.496,-0.032,-0.101
09:48:31.498,-0.032,-0.101
09:48:31.5,-0.032,-0.101
09:48:31.502,-0.032,-0.101
09:48:31.504,-0.032,-0.118
09:48:31.506,-0.032,-0.118
09:48:31.508,-0.032,-0.118
09:48:31.51,-0.032,-0.118
09:48:31.512,-0.032,-0.136
09:48:31.514,-0.032,-0.136
09:48:31.516,-0.032,-0.136
09:48:31.518,-0.032,-0.136
09:48:31.52,-0.032,-0.147
09:48:31.522,-0.032,-0.147
09:48:31.524,-0.032,-0.147
09:48:31.526,-0.032,-0.147
09:48:31.528,-0.032,-0.160
09:48:31.53,-0.032,-0.160
09:48:31.532,-0.032,-0.160
09:48:31.534,-0.032,-0.160
09:48:31.536,-0.032,-0.177
09:48:31.538,-0.032,-0.177
09:48:31.54,-0.032,-0.177
09:48:31.542,-0.032,-0.177
09:48:31.544,-0.032,-0.189
09:48:31.546,-0.032,-0.189
09:48:31.548,-0.032,-0.189
09:48:31.55,-0.032,-0.189
09:48:31.552,-0.032,-0.207
09:48:31.554,-0.032,-0.207
09:48:31.556,-0.032,-0.207
09:48:31.558,-0.032,-0.207
09:48:31.56,-0.032,-0.212
09:48:31.562,-0.032,-0.212
09:48:31.564,-0.032,-0.212
09:48:31.566,-0.032,-0.212
09:48:31.568,-0.032,-0.225
09:48:31.57,-0.032,-0.225
09:48:31.572,-0.032,-0.225
09:48:31.574,-0.032,-0.225
09:48:31.576,-0.032,-0.242
09:48:31.578,-0.032,-0.242
09:48:31.58,-0.032,-0.242
09:48:31.582,-0.032,-0.242
09:48:31.584,-0.032,-0.254
09:48:31.586,-0.032,-0.254
09:48:31.588,-0.032,-0.254
09:48:31.59,-0.032,-0.254
09:48:31.592,-0.032,-0.266
09:48:31.594,-0.032,-0.266
09:48:31.596,-0.032,-0.266
09:48:31.598,-0.032,-0.266
09:48:31.6,-0.032,-0.283
09:48:31.602,-0.032,-0.283
09:48:31.604,0.003,-0.283
09:48:31.606,-0.032,-0.283
09:48:31.608,-0.032,-0.295
09:48:31.61,-0.032,-0.295
09:48:31.612,-0.032,-0.295
09:48:31.614,-0.032,-0.295
09:48:31.616,-0.032,-0.319
09:48:31.618,-0.032,-0.319
09:48:31.62,-0.032,-0.319
09:48:31.622,-0.032,-0.319
09:48:31.624,-0.032,-0.337
09:48:31.626,-0.032,-0.337
09:48:31.628,-0.032,-0.337
09:48:31.63,-0.032,-0.337
09:48:31.632,-0.032,-0.348
09:48:31.634,-0.032,-0.348
09:48:31.636,0.003,-0.348
09:48:31.638,0.003,-0.348
09:48:31.64,-0.032,-0.360
09:48:31.642,0.003,-0.360
09:48:31.644,0.003,-0.360
09:48:31.646,-0.032,-0.360
09:48:31.648,-0.032,-0.372
09:48:31.65,0.003,-0.372
09:48:31.652,0.003,-0.372
09:48:31.654,0.003,-0.372
09:48:31.656,0.003,-0.390
09:48:31.658,0.003,-0.390
09:48:31.66,0.003,-0.390
09:48:31.662,0.003,-0.390
09:48:31.664,0.003,-0.396
09:48:31.666,0.003,-0.396
09:48:31.668,0.003,-0.396
09:48:31.67,0.003,-0.396
09:48:31.672,0.003,-0.407
09:48:31.674,0.003,-0.407
09:48:31.676,0.003,-0.407
09:48:31.678,0.003,-0.407
09:48:31.68,0.003,-0.413
09:48:31.682,0.003,-0.413
09:48:31.684,0.003,-0.413
09:48:31.686,0.003,-0.413
09:48:31.688,0.003,-0.425
09:48:31.69,0.003,-0.425
09:48:31.692,0.003,-0.425
09:48:31.694,0.003,-0.425
09:48:31.696,0.003,-0.431
09:48:31.698,0.003,-0.431
09:48:31.7,0.003,-0.431
09:48:31.702,0.003,-0.431
09:48:31.704,0.003,-0.443
09:48:31.706,0.003,-0.443
09:48:31.708,0.003,-0.443
09:48:31.71,0.003,-0.443
09:48:31.712,0.003,-0.449
09:48:31.714,0.003,-0.449
09:48:31.716,0.003,-0.449
09:48:31.718,0.003,-0.449
09:48:31.72,0.003,-0.461
09:48:31.722,0.003,-0.461
09:48:31.724,0.037,-0.461
09:48:31.726,0.464,-0.461
09:48:31.728,0.746,-0.461
09:48:31.73,0.889,-0.461
09:48:31.732,0.995,-0.461
09:48:31.734,1.029,-0.461
09:48:31.736,1.065,-0.467
09:48:31.738,1.065,-0.467
09:48:31.74,1.065,-0.467
09:48:31.742,1.065,-0.467
09:48:31.744,1.065,-0.478
09:48:31.746,1.065,-0.478
09:48:31.748,1.065,-0.478
09:48:31.75,1.029,-0.478
09:48:31.752,1.029,-0.478
09:48:31.754,1.029,-0.478
09:48:31.756,0.995,-0.478
09:48:31.758,0.995,-0.478
09:48:31.76,0.995,-0.484
09:48:31.762,0.995,-0.484
09:48:31.764,0.995,-0.484
09:48:31.766,0.995,-0.484
09:48:31.768,0.995,-0.484
09:48:31.77,0.960,-0.484
09:48:31.772,0.960,-0.484
09:48:31.774,0.960,-0.484
09:48:31.776,0.960,-0.478
09:48:31.778,0.960,-0.478
09:48:31.78,0.960,-0.478
09:48:31.782,0.960,-0.478
09:48:31.784,0.960,-0.478
09:48:31.786,0.924,-0.478
09:48:31.788,0.924,-0.478
09:48:31.79,0.924,-0.478
09:48:31.792,0.924,-0.478
09:48:31.794,0.924,-0.478
09:48:31.796,0.924,-0.478
09:48:31.798,0.889,-0.478
09:48:31.8,0.889,-0.478
09:48:31.802,0.889,-0.478
09:48:31.804,0.889,-0.478
09:48:31.806,0.889,-0.478
09:48:31.808,0.889,-0.478
09:48:31.81,0.889,-0.478
09:48:31.812,0.853,-0.478
09:48:31.814,0.853,-0.478
09:48:31.816,0.853,-0.472
09:48:31.818,0.853,-0.472
09:48:31.82,0.853,-0.472
09:48:31.822,0.853,-0.472
09:48:31.824,0.853,-0.472
09:48:31.826,0.817,-0.472
09:48:31.828,0.817,-0.472
09:48:31.83,0.817,-0.472
09:48:31.832,0.817,-0.472
09:48:31.834,0.817,-0.472
09:48:31.836,0.817,-0.472
09:48:31.838,0.817,-0.472
09:48:31.84,0.817,-0.467
09:48:31.842,0.817,-0.467
09:48:31.844,0.782,-0.467
09:48:31.846,0.782,-0.467
09:48:31.848,0.782,-0.467
09:48:31.85,0.782,-0.467
09:48:31.852,0.782,-0.467
09:48:31.854,0.782,-0.467
09:48:31.856,0.782,-0.467
09:48:31.858,0.782,-0.467
09:48:31.86,0.782,-0.467
09:48:31.862,0.782,-0.467
09:48:31.864,0.782,-0.467
09:48:31.866,0.746,-0.467
09:48:31.868,0.746,-0.467
09:48:31.87,0.746,-0.467
09:48:31.872,0.746,-0.455
09:48:31.874,0.746,-0.455
09:48:31.876,0.711,-0.455
09:48:31.878,0.711,-0.455
09:48:31.88,0.711,-0.461
09:48:31.882,0.711,-0.461
09:48:31.884,0.711,-0.461
09:48:31.886,0.711,-0.461
09:48:31.888,0.711,-0.461
09:48:31.89,0.711,-0.461
09:48:31.892,0.711,-0.461
09:48:31.894,0.675,-0.461
09:48:31.896,0.675,-0.455
09:48:31.898,0.675,-0.455
09:48:31.9,0.675,-0.455
09:48:31.902,0.675,-0.455
09:48:31.904,0.675,-0.455
09:48:31.906,0.675,-0.455
09:48:31.908,0.675,-0.455
09:48:31.91,0.675,-0.455
09:48:31.912,0.675,-0.461
09:48:31.914,0.640,-0.461
09:48:31.916,0.640,-0.461
09:48:31.918,0.640,-0.461
09:48:31.92,0.640,-0.461
09:48:31.922,0.640,-0.461
09:48:31.924,0.640,-0.461
09:48:31.926,0.640,-0.461
09:48:31.928,0.640,-0.461
09:48:31.93,0.640,-0.461
09:48:31.932,0.640,-0.461
09:48:31.934,0.640,-0.461
09:48:31.936,0.604,-0.449
09:48:31.938,0.604,-0.449
09:48:31.94,0.604,-0.449
09:48:31.942,0.604,-0.449
09:48:31.944,0.604,-0.455
09:48:31.946,0.604,-0.455
09:48:31.948,0.604,-0.455
09:48:31.95,0.604,-0.455
09:48:31.952,0.604,-0.455
09:48:31.954,0.604,-0.455
09:48:31.956,0.604,-0.455
09:48:31.958,0.569,-0.455
09:48:31.96,0.569,-0.449
09:48:31.962,0.569,-0.449
09:48:31.964,0.569,-0.449
09:48:31.966,0.569,-0.449
09:48:31.968,0.569,-0.449
09:48:31.97,0.569,-0.449
09:48:31.972,0.569,-0.449
09:48:31.974,0.533,-0.449
09:48:31.976,0.533,-0.455
09:48:31.978,0.533,-0.455
09:48:31.98,0.533,-0.455
09:48:31.982,0.533,-0.455
09:48:31.984,0.533,-0.455
09:48:31.986,0.533,-0.455
09:48:31.988,0.533,-0.455
09:48:31.99,0.533,-0.455
09:48:31.992,0.533,-0.443
09:48:31.994,0.533,-0.443
09:48:31.996,0.533,-0.443
09:48:31.998,0.499,-0.443
09:48:32,0.499,-0.443
09:48:32.002,0.499,-0.443
09:48:32.004,0.499,-0.443
09:48:32.006,0.499,-0.443
09:48:32.008,0.499,-0.443
09:48:32.01,0.499,-0.443
09:48:32.012,0.428,-0.443
09:48:32.014,0.003,-0.443
09:48:32.016,-0.246,-0.437
09:48:32.018,-0.388,-0.437
09:48:32.02,-0.494,-0.437
09:48:32.022,-0.528,-0.437
09:48:32.024,-0.528,-0.437
09:48:32.026,-0.564,-0.437
09:48:32.028,-0.564,-0.437
09:48:32.03,-0.564,-0.437
09:48:32.032,-0.564,-0.437
09:48:32.034,-0.564,-0.437
09:48:32.036,-0.564,-0.437
09:48:32.038,-0.564,-0.437
09:48:32.04,-0.564,-0.431
09:48:32.042,-0.564,-0.431
09:48:32.044,-0.564,-0.431
09:48:32.046,-0.564,-0.431
09:48:32.048,-0.528,-0.419
09:48:32.05,-0.528,-0.419
09:48:32.052,-0.528,-0.419
09:48:32.054,-0.528,-0.419
09:48:32.056,-0.528,-0.419
09:48:32.058,-0.528,-0.419
09:48:32.06,-0.528,-0.419
09:48:32.062,-0.528,-0.419
09:48:32.064,-0.528,-0.407
09:48:32.066,-0.528,-0.407
09:48:32.068,-0.528,-0.407
09:48:32.07,-0.494,-0.407
09:48:32.072,-0.494,-0.390
09:48:32.074,-0.494,-0.390
09:48:32.076,-0.494,-0.390
09:48:32.078,-0.494,-0.390
09:48:32.08,-0.494,-0.354
09:48:32.082,-0.494,-0.354
09:48:32.084,-0.494,-0.354
09:48:32.086,-0.494,-0.354
09:48:32.088,-0.494,-0.301
09:48:32.09,-0.494,-0.301
09:48:32.092,-0.494,-0.301
09:48:32.094,-0.494,-0.301
09:48:32.096,-0.494,-0.248
09:48:32.098,-0.459,-0.248
09:48:32.1,-0.459,-0.248
09:48:32.102,-0.459,-0.248
09:48:32.104,-0.459,-0.172
09:48:32.106,-0.459,-0.172
09:48:32.108,-0.459,-0.172
09:48:32.11,-0.459,-0.172
09:48:32.112,-0.459,-0.071
09:48:32.114,-0.459,-0.071
09:48:32.116,-0.459,-0.071
09:48:32.118,-0.459,-0.071
09:48:32.12,-0.459,0.035
09:48:32.122,-0.423,0.035
09:48:32.124,-0.459,0.035
09:48:32.126,-0.423,0.035
09:48:32.128,-0.423,0.141
09:48:32.13,-0.423,0.141
09:48:32.132,-0.423,0.141
09:48:32.134,-0.423,0.141
09:48:32.136,-0.423,0.248
09:48:32.138,-0.423,0.248
09:48:32.14,-0.423,0.248
09:48:32.142,-0.423,0.248
09:48:32.144,-0.423,0.348
09:48:32.146,-0.423,0.348
09:48:32.148,-0.423,0.348
09:48:32.15,-0.423,0.348
09:48:32.152,-0.388,0.443
09:48:32.154,-0.388,0.443
09:48:32.156,-0.388,0.443
09:48:32.158,-0.388,0.443
09:48:32.16,-0.388,0.525
09:48:32.162,-0.388,0.525
09:48:32.164,-0.388,0.525
09:48:32.166,-0.388,0.525
09:48:32.168,-0.388,0.591
09:48:32.17,-0.388,0.591
09:48:32.172,-0.388,0.591
09:48:32.174,-0.388,0.591
09:48:32.176,-0.388,0.632
09:48:32.178,-0.388,0.632
09:48:32.18,-0.388,0.632
09:48:32.182,-0.352,0.632
09:48:32.184,-0.352,0.661
09:48:32.186,-0.352,0.661
09:48:32.188,-0.352,0.661
09:48:32.19,-0.352,0.661
09:48:32.192,-0.352,0.679
09:48:32.194,-0.352,0.679
09:48:32.196,-0.352,0.679
09:48:32.198,-0.352,0.679
09:48:32.2,-0.352,0.685
09:48:32.202,-0.352,0.685
09:48:32.204,-0.352,0.685
09:48:32.206,-0.352,0.685
09:48:32.208,-0.352,0.673
09:48:32.21,-0.352,0.673
09:48:32.212,-0.352,0.673
09:48:32.214,-0.352,0.673
09:48:32.216,-0.352,0.661
09:48:32.218,-0.352,0.661
09:48:32.22,-0.317,0.661
09:48:32.222,-0.317,0.661
09:48:32.224,-0.317,0.649
09:48:32.226,-0.317,0.649
09:48:32.228,-0.317,0.649
09:48:32.23,-0.317,0.649
09:48:32.232,-0.317,0.614
09:48:32.234,-0.317,0.614
09:48:32.236,-0.317,0.614
09:48:32.238,-0.317,0.614
09:48:32.24,-0.317,0.585
09:48:32.242,-0.317,0.585
09:48:32.244,-0.317,0.585
09:48:32.246,-0.317,0.585
09:48:32.248,-0.317,0.555
09:48:32.25,-0.317,0.555
09:48:32.252,-0.317,0.555
09:48:32.254,-0.317,0.555
09:48:32.256,-0.317,0.519
09:48:32.258,-0.317,0.519
09:48:32.26,-0.317,0.519
09:48:32.262,-0.317,0.519
09:48:32.264,-0.281,0.478
09:48:32.266,-0.281,0.478
09:48:32.268,-0.281,0.478
09:48:32.27,-0.281,0.478
09:48:32.272,-0.281,0.425
09:48:32.274,-0.281,0.425
09:48:32.276,-0.281,0.425
09:48:32.278,-0.281,0.425
09:48:32.28,-0.281,0.378
09:48:32.282,-0.281,0.378
09:48:32.284,-0.281,0.378
09:48:32.286,-0.281,0.378
09:48:32.288,-0.281,0.337
09:48:32.29,-0.281,0.337
09:48:32.292,-0.281,0.337
09:48:32.294,-0.281,0.337
09:48:32.296,-0.246,0.278
09:48:32.298,-0.246,0.278
09:48:32.3,-0.246,0.278
09:48:32.302,-0.246,0.278
09:48:32.304,-0.246,0.225
09:48:32.306,-0.246,0.225
09:48:32.308,-0.246,0.225
09:48:32.31,-0.246,0.225
09:48:32.312,-0.246,0.171
09:48:32.314,-0.246,0.171
09:48:32.316,-0.246,0.171
09:48:32.318,-0.246,0.171
09:48:32.32,-0.246,0.118
