Time and date,II,PLETH
12:12:00.000 07/10/1995,0.057,-0.520
12:12:00.002 07/10/1995,0.058,-0.520
12:12:00.004 07/10/1995,0.058,-0.520
12:12:00.006 07/10/1995,0.058,-0.520
12:12:00.008 07/10/1995,0.057,-0.533
12:12:00.010 07/10/1995,0.056,-0.533
12:12:00.012 07/10/1995,0.055,-0.533
12:12:00.014 07/10/1995,0.053,-0.533
12:12:00.016 07/10/1995,0.051,-0.541
12:12:00.018 07/10/1995,0.050,-0.541
12:12:00.020 07/10/1995,0.046,-0.541
12:12:00.022 07/10/1995,0.043,-0.541
12:12:00.024 07/10/1995,0.039,-0.546
12:12:00.026 07/10/1995,0.036,-0.546
12:12:00.028 07/10/1995,0.031,-0.546
12:12:00.030 07/10/1995,0.026,-0.546
12:12:00.032 07/10/1995,0.019,-0.549
12:12:00.034 07/10/1995,0.013,-0.549
12:12:00.036 07/10/1995,0.006,-0.549
12:12:00.038 07/10/1995,-0.001,-0.549
12:12:00.040 07/10/1995,-0.010,-0.539
12:12:00.042 07/10/1995,-0.018,-0.539
12:12:00.044 07/10/1995,-0.028,-0.539
12:12:00.046 07/10/1995,-0.037,-0.539
12:12:00.048 07/10/1995,-0.046,-0.518
12:12:00.050 07/10/1995,-0.055,-0.518
12:12:00.052 07/10/1995,-0.064,-0.518
12:12:00.054 07/10/1995,-0.073,-0.518
12:12:00.056 07/10/1995,-0.084,-0.484
12:12:00.058 07/10/1995,-0.094,-0.484
12:12:00.060 07/10/1995,-0.102,-0.484
12:12:00.062 07/10/1995,-0.110,-0.484
12:12:00.064 07/10/1995,-0.116,-0.430
12:12:00.066 07/10/1995,-0.122,-0.430
12:12:00.068 07/10/1995,-0.127,-0.430
12:12:00.070 07/10/1995,-0.133,-0.430
12:12:00.072 07/10/1995,-0.136,-0.363
12:12:00.074 07/10/1995,-0.138,-0.363
12:12:00.076 07/10/1995,-0.138,-0.363
12:12:00.078 07/10/1995,-0.138,-0.363
12:12:00.080 07/10/1995,-0.136,-0.273
12:12:00.082 07/10/1995,-0.133,-0.273
12:12:00.084 07/10/1995,-0.129,-0.273
12:12:00.086 07/10/1995,-0.125,-0.273
12:12:00.088 07/10/1995,-0.121,-0.175
12:12:00.090 07/10/1995,-0.117,-0.175
12:12:00.092 07/10/1995,-0.111,-0.175
12:12:00.094 07/10/1995,-0.106,-0.175
12:12:00.096 07/10/1995,-0.100,-0.064
12:12:00.098 07/10/1995,-0.095,-0.064
12:12:00.100 07/10/1995,-0.090,-0.064
12:12:00.102 07/10/1995,-0.085,-0.064
12:12:00.104 07/10/1995,-0.079,0.053
12:12:00.106 07/10/1995,-0.073,0.053
12:12:00.108 07/10/1995,-0.070,0.053
12:12:00.110 07/10/1995,-0.066,0.053
12:12:00.112 07/10/1995,-0.062,0.166
12:12:00.114 07/10/1995,-0.057,0.166
12:12:00.116 07/10/1995,-0.053,0.166
12:12:00.118 07/10/1995,-0.049,0.166
12:12:00.120 07/10/1995,-0.044,0.271
12:12:00.122 07/10/1995,-0.040,0.271
12:12:00.124 07/10/1995,-0.037,0.271
12:12:00.126 07/10/1995,-0.033,0.271
12:12:00.128 07/10/1995,-0.030,0.362
12:12:00.130 07/10/1995,-0.027,0.362
12:12:00.132 07/10/1995,-0.025,0.362
12:12:00.134 07/10/1995,-0.023,0.362
12:12:00.136 07/10/1995,-0.022,0.440
12:12:00.138 07/10/1995,-0.021,0.440
12:12:00.140 07/10/1995,-0.020,0.440
12:12:00.142 07/10/1995,-0.019,0.440
12:12:00.144 07/10/1995,-0.020,0.498
12:12:00.146 07/10/1995,-0.021,0.498
12:12:00.148 07/10/1995,-0.020,0.498
12:12:00.150 07/10/1995,-0.019,0.498
12:12:00.152 07/10/1995,-0.018,0.536
12:12:00.154 07/10/1995,-0.017,0.536
12:12:00.156 07/10/1995,-0.017,0.536
12:12:00.158 07/10/1995,-0.016,0.536
12:12:00.160 07/10/1995,-0.015,0.557
12:12:00.162 07/10/1995,-0.014,0.557
12:12:00.164 07/10/1995,-0.013,0.557
12:12:00.166 07/10/1995,-0.013,0.557
12:12:00.168 07/10/1995,-0.012,0.562
12:12:00.170 07/10/1995,-0.011,0.562
12:12:00.172 07/10/1995,-0.010,0.562
12:12:00.174 07/10/1995,-0.009,0.562
12:12:00.176 07/10/1995,-0.006,0.557
12:12:00.178 07/10/1995,-0.004,0.557
12:12:00.180 07/10/1995,0.000,0.557
12:12:00.182 07/10/1995,0.004,0.557
12:12:00.184 07/10/1995,0.010,0.539
12:12:00.186 07/10/1995,0.015,0.539
12:12:00.188 07/10/1995,0.021,0.539
12:12:00.190 07/10/1995,0.027,0.539
12:12:00.192 07/10/1995,0.035,0.516
12:12:00.194 07/10/1995,0.043,0.516
12:12:00.196 07/10/1995,0.053,0.516
12:12:00.198 07/10/1995,0.064,0.516
12:12:00.200 07/10/1995,0.075,0.485
12:12:00.202 07/10/1995,0.085,0.485
12:12:00.204 07/10/1995,0.093,0.485
12:12:00.206 07/10/1995,0.102,0.485
12:12:00.208 07/10/1995,0.107,0.455
12:12:00.210 07/10/1995,0.112,0.455
12:12:00.212 07/10/1995,0.117,0.455
12:12:00.214 07/10/1995,0.122,0.455
12:12:00.216 07/10/1995,0.130,0.419
12:12:00.218 07/10/1995,0.137,0.419
12:12:00.220 07/10/1995,0.145,0.419
12:12:00.222 07/10/1995,0.152,0.419
12:12:00.224 07/10/1995,0.157,0.378
12:12:00.226 07/10/1995,0.161,0.378
12:12:00.228 07/10/1995,0.157,0.378
12:12:00.230 07/10/1995,0.153,0.378
12:12:00.232 07/10/1995,0.141,0.340
12:12:00.234 07/10/1995,0.129,0.340
12:12:00.236 07/10/1995,0.112,0.340
12:12:00.238 07/10/1995,0.096,0.340
12:12:00.240 07/10/1995,0.082,0.296
12:12:00.242 07/10/1995,0.068,0.296
12:12:00.244 07/10/1995,0.060,0.296
12:12:00.246 07/10/1995,0.052,0.296
12:12:00.248 07/10/1995,0.050,0.256
12:12:00.250 07/10/1995,0.048,0.256
12:12:00.252 07/10/1995,0.044,0.256
12:12:00.254 07/10/1995,0.041,0.256
12:12:00.256 07/10/1995,0.034,0.214
12:12:00.258 07/10/1995,0.027,0.214
12:12:00.260 07/10/1995,0.017,0.214
12:12:00.262 07/10/1995,0.006,0.214
12:12:00.264 07/10/1995,-0.006,0.169
12:12:00.266 07/10/1995,-0.018,0.169
12:12:00.268 07/10/1995,-0.031,0.169
12:12:00.270 07/10/1995,-0.044,0.169
12:12:00.272 07/10/1995,-0.057,0.122
12:12:00.274 07/10/1995,-0.069,0.122
12:12:00.276 07/10/1995,-0.080,0.122
12:12:00.278 07/10/1995,-0.091,0.122
12:12:00.280 07/10/1995,-0.099,0.076
12:12:00.282 07/10/1995,-0.107,0.076
12:12:00.284 07/10/1995,-0.113,0.076
12:12:00.286 07/10/1995,-0.120,0.076
12:12:00.288 07/10/1995,-0.124,0.025
12:12:00.290 07/10/1995,-0.129,0.025
12:12:00.292 07/10/1995,-0.131,0.025
12:12:00.294 07/10/1995,-0.133,0.025
12:12:00.296 07/10/1995,-0.134,-0.021
12:12:00.298 07/10/1995,-0.135,-0.021
12:12:00.300 07/10/1995,-0.135,-0.021
12:12:00.302 07/10/1995,-0.135,-0.021
12:12:00.304 07/10/1995,-0.135,-0.067
12:12:00.306 07/10/1995,-0.135,-0.067
12:12:00.308 07/10/1995,-0.134,-0.067
12:12:00.310 07/10/1995,-0.134,-0.067
12:12:00.312 07/10/1995,-0.133,-0.113
12:12:00.314 07/10/1995,-0.132,-0.113
12:12:00.316 07/10/1995,-0.131,-0.113
12:12:00.318 07/10/1995,-0.130,-0.113
12:12:00.320 07/10/1995,-0.130,-0.156
12:12:00.322 07/10/1995,-0.131,-0.156
12:12:00.324 07/10/1995,-0.131,-0.156
12:12:00.326 07/10/1995,-0.131,-0.156
12:12:00.328 07/10/1995,-0.131,-0.192
12:12:00.330 07/10/1995,-0.132,-0.192
12:12:00.332 07/10/1995,-0.132,-0.192
12:12:00.334 07/10/1995,-0.133,-0.192
12:12:00.336 07/10/1995,-0.132,-0.225
12:12:00.338 07/10/1995,-0.132,-0.225
12:12:00.340 07/10/1995,-0.131,-0.225
12:12:00.342 07/10/1995,-0.130,-0.225
12:12:00.344 07/10/1995,-0.129,-0.256
12:12:00.346 07/10/1995,-0.127,-0.256
12:12:00.348 07/10/1995,-0.127,-0.256
12:12:00.350 07/10/1995,-0.126,-0.256
12:12:00.352 07/10/1995,-0.126,-0.281
12:12:00.354 07/10/1995,-0.126,-0.281
12:12:00.356 07/10/1995,-0.126,-0.281
12:12:00.358 07/10/1995,-0.126,-0.281
12:12:00.360 07/10/1995,-0.126,-0.301
12:12:00.362 07/10/1995,-0.125,-0.301
12:12:00.364 07/10/1995,-0.124,-0.301
12:12:00.366 07/10/1995,-0.123,-0.301
12:12:00.368 07/10/1995,-0.120,-0.315
12:12:00.370 07/10/1995,-0.117,-0.315
12:12:00.372 07/10/1995,-0.105,-0.315
12:12:00.374 07/10/1995,-0.094,-0.315
12:12:00.376 07/10/1995,-0.067,-0.325
12:12:00.378 07/10/1995,-0.041,-0.325
12:12:00.380 07/10/1995,0.009,-0.325
12:12:00.382 07/10/1995,0.058,-0.325
12:12:00.384 07/10/1995,0.134,-0.335
12:12:00.386 07/10/1995,0.210,-0.335
12:12:00.388 07/10/1995,0.301,-0.335
12:12:00.390 07/10/1995,0.392,-0.335
12:12:00.392 07/10/1995,0.477,-0.340
12:12:00.394 07/10/1995,0.562,-0.340
12:12:00.396 07/10/1995,0.614,-0.340
12:12:00.398 07/10/1995,0.666,-0.340
12:12:00.400 07/10/1995,0.673,-0.343
12:12:00.402 07/10/1995,0.679,-0.343
12:12:00.404 07/10/1995,0.641,-0.343
12:12:00.406 07/10/1995,0.603,-0.343
12:12:00.408 07/10/1995,0.537,-0.347
12:12:00.410 07/10/1995,0.472,-0.347
12:12:00.412 07/10/1995,0.403,-0.347
12:12:00.414 07/10/1995,0.335,-0.347
12:12:00.416 07/10/1995,0.281,-0.350
12:12:00.418 07/10/1995,0.228,-0.350
12:12:00.420 07/10/1995,0.198,-0.350
12:12:00.422 07/10/1995,0.167,-0.350
12:12:00.424 07/10/1995,0.159,-0.352
12:12:00.426 07/10/1995,0.151,-0.352
12:12:00.428 07/10/1995,0.157,-0.352
12:12:00.430 07/10/1995,0.162,-0.352
12:12:00.432 07/10/1995,0.171,-0.355
12:12:00.434 07/10/1995,0.179,-0.355
12:12:00.436 07/10/1995,0.185,-0.355
12:12:00.438 07/10/1995,0.191,-0.355
12:12:00.440 07/10/1995,0.194,-0.363
12:12:00.442 07/10/1995,0.198,-0.363
12:12:00.444 07/10/1995,0.204,-0.363
12:12:00.446 07/10/1995,0.211,-0.363
12:12:00.448 07/10/1995,0.224,-0.368
12:12:00.450 07/10/1995,0.238,-0.368
12:12:00.452 07/10/1995,0.252,-0.368
12:12:00.454 07/10/1995,0.266,-0.368
12:12:00.456 07/10/1995,0.270,-0.376
12:12:00.458 07/10/1995,0.274,-0.376
12:12:00.460 07/10/1995,0.263,-0.376
12:12:00.462 07/10/1995,0.253,-0.376
12:12:00.464 07/10/1995,0.228,-0.383
12:12:00.466 07/10/1995,0.204,-0.383
12:12:00.468 07/10/1995,0.171,-0.383
12:12:00.470 07/10/1995,0.138,-0.383
12:12:00.472 07/10/1995,0.106,-0.394
12:12:00.474 07/10/1995,0.075,-0.394
12:12:00.476 07/10/1995,0.050,-0.394
12:12:00.478 07/10/1995,0.026,-0.394
12:12:00.480 07/10/1995,0.009,-0.399
12:12:00.482 07/10/1995,-0.009,-0.399
12:12:00.484 07/10/1995,-0.021,-0.399
12:12:00.486 07/10/1995,-0.032,-0.399
12:12:00.488 07/10/1995,-0.041,-0.409
12:12:00.490 07/10/1995,-0.050,-0.409
12:12:00.492 07/10/1995,-0.054,-0.409
12:12:00.494 07/10/1995,-0.058,-0.409
12:12:00.496 07/10/1995,-0.059,-0.421
12:12:00.498 07/10/1995,-0.060,-0.421
12:12:00.500 07/10/1995,-0.060,-0.421
12:12:00.502 07/10/1995,-0.060,-0.421
12:12:00.504 07/10/1995,-0.060,-0.432
12:12:00.506 07/10/1995,-0.060,-0.432
12:12:00.508 07/10/1995,-0.062,-0.432
12:12:00.510 07/10/1995,-0.063,-0.432
12:12:00.512 07/10/1995,-0.063,-0.442
12:12:00.514 07/10/1995,-0.064,-0.442
12:12:00.516 07/10/1995,-0.064,-0.442
12:12:00.518 07/10/1995,-0.064,-0.442
12:12:00.520 07/10/1995,-0.064,-0.455
12:12:00.522 07/10/1995,-0.064,-0.455
12:12:00.524 07/10/1995,-0.064,-0.455
12:12:00.526 07/10/1995,-0.065,-0.455
12:12:00.528 07/10/1995,-0.066,-0.463
12:12:00.530 07/10/1995,-0.067,-0.463
12:12:00.532 07/10/1995,-0.067,-0.463
12:12:00.534 07/10/1995,-0.068,-0.463
12:12:00.536 07/10/1995,-0.067,-0.475
12:12:00.538 07/10/1995,-0.067,-0.475
12:12:00.540 07/10/1995,-0.065,-0.475
12:12:00.542 07/10/1995,-0.064,-0.475
12:12:00.544 07/10/1995,-0.062,-0.485
12:12:00.546 07/10/1995,-0.059,-0.485
12:12:00.548 07/10/1995,-0.059,-0.485
12:12:00.550 07/10/1995,-0.059,-0.485
12:12:00.552 07/10/1995,-0.059,-0.500
12:12:00.554 07/10/1995,-0.058,-0.500
12:12:00.556 07/10/1995,-0.057,-0.500
12:12:00.558 07/10/1995,-0.055,-0.500
12:12:00.560 07/10/1995,-0.052,-0.511
12:12:00.562 07/10/1995,-0.050,-0.511
12:12:00.564 07/10/1995,-0.045,-0.511
12:12:00.566 07/10/1995,-0.040,-0.511
12:12:00.568 07/10/1995,-0.034,-0.523
12:12:00.570 07/10/1995,-0.028,-0.523
12:12:00.572 07/10/1995,-0.022,-0.523
12:12:00.574 07/10/1995,-0.016,-0.523
12:12:00.576 07/10/1995,-0.011,-0.536
12:12:00.578 07/10/1995,-0.006,-0.536
12:12:00.580 07/10/1995,-0.003,-0.536
12:12:00.582 07/10/1995,0.001,-0.536
12:12:00.584 07/10/1995,0.005,-0.546
12:12:00.586 07/10/1995,0.009,-0.546
12:12:00.588 07/10/1995,0.011,-0.546
12:12:00.590 07/10/1995,0.013,-0.546
12:12:00.592 07/10/1995,0.015,-0.559
12:12:00.594 07/10/1995,0.017,-0.559
12:12:00.596 07/10/1995,0.021,-0.559
12:12:00.598 07/10/1995,0.025,-0.559
12:12:00.600 07/10/1995,0.029,-0.575
12:12:00.602 07/10/1995,0.033,-0.575
12:12:00.604 07/10/1995,0.037,-0.575
12:12:00.606 07/10/1995,0.041,-0.575
12:12:00.608 07/10/1995,0.044,-0.576
12:12:00.610 07/10/1995,0.048,-0.576
12:12:00.612 07/10/1995,0.049,-0.576
12:12:00.614 07/10/1995,0.051,-0.576
12:12:00.616 07/10/1995,0.051,-0.588
12:12:00.618 07/10/1995,0.052,-0.588
12:12:00.620 07/10/1995,0.051,-0.588
12:12:00.622 07/10/1995,0.051,-0.588
12:12:00.624 07/10/1995,0.050,-0.598
12:12:00.626 07/10/1995,0.050,-0.598
12:12:00.628 07/10/1995,0.049,-0.598
12:12:00.630 07/10/1995,0.048,-0.598
12:12:00.632 07/10/1995,0.046,-0.605
12:12:00.634 07/10/1995,0.044,-0.605
12:12:00.636 07/10/1995,0.041,-0.605
12:12:00.638 07/10/1995,0.038,-0.605
12:12:00.640 07/10/1995,0.031,-0.612
12:12:00.642 07/10/1995,0.024,-0.612
12:12:00.644 07/10/1995,0.015,-0.612
12:12:00.646 07/10/1995,0.006,-0.612
12:12:00.648 07/10/1995,-0.004,-0.610
12:12:00.650 07/10/1995,-0.015,-0.610
12:12:00.652 07/10/1995,-0.026,-0.610
12:12:00.654 07/10/1995,-0.037,-0.610
12:12:00.656 07/10/1995,-0.046,-0.596
12:12:00.658 07/10/1995,-0.055,-0.596
12:12:00.660 07/10/1995,-0.063,-0.596
12:12:00.662 07/10/1995,-0.071,-0.596
12:12:00.664 07/10/1995,-0.079,-0.572
12:12:00.666 07/10/1995,-0.087,-0.572
12:12:00.668 07/10/1995,-0.095,-0.572
12:12:00.670 07/10/1995,-0.103,-0.572
12:12:00.672 07/10/1995,-0.110,-0.538
12:12:00.674 07/10/1995,-0.117,-0.538
12:12:00.676 07/10/1995,-0.124,-0.538
12:12:00.678 07/10/1995,-0.131,-0.538
12:12:00.680 07/10/1995,-0.134,-0.483
12:12:00.682 07/10/1995,-0.138,-0.483
12:12:00.684 07/10/1995,-0.139,-0.483
12:12:00.686 07/10/1995,-0.139,-0.483
12:12:00.688 07/10/1995,-0.138,-0.413
12:12:00.690 07/10/1995,-0.137,-0.413
12:12:00.692 07/10/1995,-0.135,-0.413
12:12:00.694 07/10/1995,-0.133,-0.413
12:12:00.696 07/10/1995,-0.129,-0.330
12:12:00.698 07/10/1995,-0.125,-0.330
12:12:00.700 07/10/1995,-0.121,-0.330
12:12:00.702 07/10/1995,-0.118,-0.330
12:12:00.704 07/10/1995,-0.113,-0.234
12:12:00.706 07/10/1995,-0.109,-0.234
12:12:00.708 07/10/1995,-0.105,-0.234
12:12:00.710 07/10/1995,-0.100,-0.234
12:12:00.712 07/10/1995,-0.094,-0.132
12:12:00.714 07/10/1995,-0.089,-0.132
12:12:00.716 07/10/1995,-0.083,-0.132
12:12:00.718 07/10/1995,-0.078,-0.132
12:12:00.720 07/10/1995,-0.073,-0.026
12:12:00.722 07/10/1995,-0.069,-0.026
12:12:00.724 07/10/1995,-0.066,-0.026
12:12:00.726 07/10/1995,-0.063,-0.026
12:12:00.728 07/10/1995,-0.060,0.071
12:12:00.730 07/10/1995,-0.057,0.071
12:12:00.732 07/10/1995,-0.055,0.071
12:12:00.734 07/10/1995,-0.052,0.071
12:12:00.736 07/10/1995,-0.049,0.165
12:12:00.738 07/10/1995,-0.046,0.165
12:12:00.740 07/10/1995,-0.044,0.165
12:12:00.742 07/10/1995,-0.041,0.165
12:12:00.744 07/10/1995,-0.038,0.241
12:12:00.746 07/10/1995,-0.036,0.241
12:12:00.748 07/10/1995,-0.033,0.241
12:12:00.750 07/10/1995,-0.031,0.241
12:12:00.752 07/10/1995,-0.029,0.301
12:12:00.754 07/10/1995,-0.027,0.301
12:12:00.756 07/10/1995,-0.025,0.301
12:12:00.758 07/10/1995,-0.023,0.301
12:12:00.760 07/10/1995,-0.022,0.346
12:12:00.762 07/10/1995,-0.021,0.346
12:12:00.764 07/10/1995,-0.019,0.346
12:12:00.766 07/10/1995,-0.018,0.346
12:12:00.768 07/10/1995,-0.018,0.370
12:12:00.770 07/10/1995,-0.017,0.370
12:12:00.772 07/10/1995,-0.017,0.370
12:12:00.774 07/10/1995,-0.016,0.370
12:12:00.776 07/10/1995,-0.016,0.383
12:12:00.778 07/10/1995,-0.015,0.383
12:12:00.780 07/10/1995,-0.016,0.383
12:12:00.782 07/10/1995,-0.016,0.383
12:12:00.784 07/10/1995,-0.016,0.376
12:12:00.786 07/10/1995,-0.016,0.376
12:12:00.788 07/10/1995,-0.016,0.376
12:12:00.790 07/10/1995,-0.016,0.376
12:12:00.792 07/10/1995,-0.015,0.361
12:12:00.794 07/10/1995,-0.013,0.361
12:12:00.796 07/10/1995,-0.008,0.361
12:12:00.798 07/10/1995,-0.003,0.361
12:12:00.800 07/10/1995,0.005,0.340
12:12:00.802 07/10/1995,0.013,0.340
12:12:00.804 07/10/1995,0.022,0.340
12:12:00.806 07/10/1995,0.031,0.340
12:12:00.808 07/10/1995,0.042,0.308
12:12:00.810 07/10/1995,0.053,0.308
12:12:00.812 07/10/1995,0.064,0.308
12:12:00.814 07/10/1995,0.075,0.308
12:12:00.816 07/10/1995,0.084,0.275
12:12:00.818 07/10/1995,0.094,0.275
12:12:00.820 07/10/1995,0.101,0.275
12:12:00.822 07/10/1995,0.108,0.275
12:12:00.824 07/10/1995,0.112,0.241
12:12:00.826 07/10/1995,0.117,0.241
12:12:00.828 07/10/1995,0.121,0.241
12:12:00.830 07/10/1995,0.125,0.241
12:12:00.832 07/10/1995,0.131,0.203
12:12:00.834 07/10/1995,0.136,0.203
12:12:00.836 07/10/1995,0.141,0.203
12:12:00.838 07/10/1995,0.147,0.203
12:12:00.840 07/10/1995,0.147,0.170
12:12:00.842 07/10/1995,0.147,0.170
12:12:00.844 07/10/1995,0.140,0.170
12:12:00.846 07/10/1995,0.133,0.170
12:12:00.848 07/10/1995,0.119,0.134
12:12:00.850 07/10/1995,0.105,0.134
12:12:00.852 07/10/1995,0.090,0.134
12:12:00.854 07/10/1995,0.075,0.134
12:12:00.856 07/10/1995,0.064,0.096
12:12:00.858 07/10/1995,0.053,0.096
12:12:00.860 07/10/1995,0.049,0.096
12:12:00.862 07/10/1995,0.044,0.096
12:12:00.864 07/10/1995,0.043,0.062
12:12:00.866 07/10/1995,0.042,0.062
12:12:00.868 07/10/1995,0.040,0.062
12:12:00.870 07/10/1995,0.038,0.062
12:12:00.872 07/10/1995,0.031,0.024
12:12:00.874 07/10/1995,0.025,0.024
12:12:00.876 07/10/1995,0.013,0.024
12:12:00.878 07/10/1995,0.002,0.024
12:12:00.880 07/10/1995,-0.011,-0.012
12:12:00.882 07/10/1995,-0.025,-0.012
12:12:00.884 07/10/1995,-0.038,-0.012
12:12:00.886 07/10/1995,-0.051,-0.012
12:12:00.888 07/10/1995,-0.063,-0.043
12:12:00.890 07/10/1995,-0.076,-0.043
12:12:00.892 07/10/1995,-0.086,-0.043
12:12:00.894 07/10/1995,-0.096,-0.043
12:12:00.896 07/10/1995,-0.103,-0.079
12:12:00.898 07/10/1995,-0.110,-0.079
12:12:00.900 07/10/1995,-0.115,-0.079
12:12:00.902 07/10/1995,-0.120,-0.079
12:12:00.904 07/10/1995,-0.122,-0.113
12:12:00.906 07/10/1995,-0.124,-0.113
12:12:00.908 07/10/1995,-0.126,-0.113
12:12:00.910 07/10/1995,-0.127,-0.113
12:12:00.912 07/10/1995,-0.129,-0.148
12:12:00.914 07/10/1995,-0.131,-0.148
12:12:00.916 07/10/1995,-0.131,-0.148
12:12:00.918 07/10/1995,-0.132,-0.148
12:12:00.920 07/10/1995,-0.132,-0.179
12:12:00.922 07/10/1995,-0.132,-0.179
12:12:00.924 07/10/1995,-0.133,-0.179
12:12:00.926 07/10/1995,-0.135,-0.179
12:12:00.928 07/10/1995,-0.137,-0.213
12:12:00.930 07/10/1995,-0.139,-0.213
12:12:00.932 07/10/1995,-0.141,-0.213
12:12:00.934 07/10/1995,-0.143,-0.213
12:12:00.936 07/10/1995,-0.142,-0.241
12:12:00.938 07/10/1995,-0.141,-0.241
12:12:00.940 07/10/1995,-0.140,-0.241
12:12:00.942 07/10/1995,-0.138,-0.241
12:12:00.944 07/10/1995,-0.136,-0.270
12:12:00.946 07/10/1995,-0.134,-0.270
12:12:00.948 07/10/1995,-0.131,-0.270
12:12:00.950 07/10/1995,-0.129,-0.270
12:12:00.952 07/10/1995,-0.125,-0.291
12:12:00.954 07/10/1995,-0.122,-0.291
12:12:00.956 07/10/1995,-0.120,-0.291
12:12:00.958 07/10/1995,-0.118,-0.291
12:12:00.960 07/10/1995,-0.116,-0.316
12:12:00.962 07/10/1995,-0.114,-0.316
12:12:00.964 07/10/1995,-0.114,-0.316
12:12:00.966 07/10/1995,-0.114,-0.316
12:12:00.968 07/10/1995,-0.114,-0.333
12:12:00.970 07/10/1995,-0.113,-0.333
12:12:00.972 07/10/1995,-0.113,-0.333
12:12:00.974 07/10/1995,-0.112,-0.333
12:12:00.976 07/10/1995,-0.113,-0.349
12:12:00.978 07/10/1995,-0.113,-0.349
12:12:00.980 07/10/1995,-0.113,-0.349
12:12:00.982 07/10/1995,-0.113,-0.349
12:12:00.984 07/10/1995,-0.109,-0.361
12:12:00.986 07/10/1995,-0.105,-0.361
12:12:00.988 07/10/1995,-0.090,-0.361
12:12:00.990 07/10/1995,-0.076,-0.361
12:12:00.992 07/10/1995,-0.042,-0.370
12:12:00.994 07/10/1995,-0.009,-0.370
12:12:00.996 07/10/1995,0.049,-0.370
12:12:00.998 07/10/1995,0.107,-0.370
12:12:01.000 07/10/1995,0.187,-0.378
12:12:01.002 07/10/1995,0.268,-0.378
12:12:01.004 07/10/1995,0.356,-0.378
12:12:01.006 07/10/1995,0.444,-0.378
12:12:01.008 07/10/1995,0.516,-0.383
12:12:01.010 07/10/1995,0.587,-0.383
12:12:01.012 07/10/1995,0.621,-0.383
12:12:01.014 07/10/1995,0.654,-0.383
12:12:01.016 07/10/1995,0.643,-0.390
12:12:01.018 07/10/1995,0.632,-0.390
12:12:01.020 07/10/1995,0.583,-0.390
12:12:01.022 07/10/1995,0.535,-0.390
12:12:01.024 07/10/1995,0.469,-0.392
12:12:01.026 07/10/1995,0.403,-0.392
12:12:01.028 07/10/1995,0.343,-0.392
12:12:01.030 07/10/1995,0.283,-0.392
12:12:01.032 07/10/1995,0.242,-0.399
12:12:01.034 07/10/1995,0.202,-0.399
12:12:01.036 07/10/1995,0.185,-0.399
12:12:01.038 07/10/1995,0.167,-0.399
12:12:01.040 07/10/1995,0.168,-0.402
12:12:01.042 07/10/1995,0.168,-0.402
12:12:01.044 07/10/1995,0.176,-0.402
12:12:01.046 07/10/1995,0.184,-0.402
12:12:01.048 07/10/1995,0.191,-0.404
12:12:01.050 07/10/1995,0.198,-0.404
12:12:01.052 07/10/1995,0.201,-0.404
12:12:01.054 07/10/1995,0.204,-0.404
12:12:01.056 07/10/1995,0.208,-0.409
12:12:01.058 07/10/1995,0.212,-0.409
12:12:01.060 07/10/1995,0.219,-0.409
12:12:01.062 07/10/1995,0.226,-0.409
12:12:01.064 07/10/1995,0.237,-0.413
12:12:01.066 07/10/1995,0.248,-0.413
12:12:01.068 07/10/1995,0.258,-0.413
12:12:01.070 07/10/1995,0.268,-0.413
12:12:01.072 07/10/1995,0.267,-0.420
12:12:01.074 07/10/1995,0.267,-0.420
12:12:01.076 07/10/1995,0.252,-0.420
12:12:01.078 07/10/1995,0.237,-0.420
12:12:01.080 07/10/1995,0.209,-0.425
12:12:01.082 07/10/1995,0.181,-0.425
12:12:01.084 07/10/1995,0.150,-0.425
12:12:01.086 07/10/1995,0.118,-0.425
12:12:01.088 07/10/1995,0.089,-0.435
12:12:01.090 07/10/1995,0.060,-0.435
12:12:01.092 07/10/1995,0.038,-0.435
12:12:01.094 07/10/1995,0.015,-0.435
12:12:01.096 07/10/1995,0.000,-0.443
12:12:01.098 07/10/1995,-0.015,-0.443
12:12:01.100 07/10/1995,-0.025,-0.443
12:12:01.102 07/10/1995,-0.036,-0.443
12:12:01.104 07/10/1995,-0.043,-0.450
12:12:01.106 07/10/1995,-0.050,-0.450
12:12:01.108 07/10/1995,-0.053,-0.450
12:12:01.110 07/10/1995,-0.057,-0.450
12:12:01.112 07/10/1995,-0.059,-0.457
12:12:01.114 07/10/1995,-0.060,-0.457
12:12:01.116 07/10/1995,-0.060,-0.457
12:12:01.118 07/10/1995,-0.060,-0.457
12:12:01.120 07/10/1995,-0.060,-0.457
12:12:01.122 07/10/1995,-0.060,-0.457
12:12:01.124 07/10/1995,-0.062,-0.457
12:12:01.126 07/10/1995,-0.063,-0.457
12:12:01.128 07/10/1995,-0.063,-0.467
12:12:01.130 07/10/1995,-0.064,-0.467
12:12:01.132 07/10/1995,-0.064,-0.467
12:12:01.134 07/10/1995,-0.064,-0.467
12:12:01.136 07/10/1995,-0.064,-0.471
12:12:01.138 07/10/1995,-0.064,-0.471
12:12:01.140 07/10/1995,-0.064,-0.471
12:12:01.142 07/10/1995,-0.064,-0.471
12:12:01.144 07/10/1995,-0.064,-0.480
12:12:01.146 07/10/1995,-0.064,-0.480
12:12:01.148 07/10/1995,-0.064,-0.480
12:12:01.150 07/10/1995,-0.064,-0.480
12:12:01.152 07/10/1995,-0.064,-0.492
12:12:01.154 07/10/1995,-0.064,-0.492
12:12:01.156 07/10/1995,-0.064,-0.492
12:12:01.158 07/10/1995,-0.064,-0.492
12:12:01.160 07/10/1995,-0.064,-0.499
12:12:01.162 07/10/1995,-0.064,-0.499
12:12:01.164 07/10/1995,-0.064,-0.499
12:12:01.166 07/10/1995,-0.064,-0.499
12:12:01.168 07/10/1995,-0.063,-0.506
12:12:01.170 07/10/1995,-0.063,-0.506
12:12:01.172 07/10/1995,-0.061,-0.506
12:12:01.174 07/10/1995,-0.059,-0.506
12:12:01.176 07/10/1995,-0.057,-0.515
12:12:01.178 07/10/1995,-0.054,-0.515
12:12:01.180 07/10/1995,-0.050,-0.515
12:12:01.182 07/10/1995,-0.045,-0.515
12:12:01.184 07/10/1995,-0.039,-0.524
12:12:01.186 07/10/1995,-0.032,-0.524
12:12:01.188 07/10/1995,-0.025,-0.524
12:12:01.190 07/10/1995,-0.017,-0.524
12:12:01.192 07/10/1995,-0.010,-0.536
12:12:01.194 07/10/1995,-0.003,-0.536
12:12:01.196 07/10/1995,0.002,-0.536
12:12:01.198 07/10/1995,0.008,-0.536
12:12:01.200 07/10/1995,0.012,-0.545
12:12:01.202 07/10/1995,0.016,-0.545
12:12:01.204 07/10/1995,0.021,-0.545
12:12:01.206 07/10/1995,0.026,-0.545
12:12:01.208 07/10/1995,0.030,-0.552
12:12:01.210 07/10/1995,0.035,-0.552
12:12:01.212 07/10/1995,0.039,-0.552
12:12:01.214 07/10/1995,0.044,-0.552
12:12:01.216 07/10/1995,0.049,-0.564
12:12:01.218 07/10/1995,0.053,-0.564
12:12:01.220 07/10/1995,0.054,-0.564
12:12:01.222 07/10/1995,0.055,-0.564
12:12:01.224 07/10/1995,0.055,-0.573
12:12:01.226 07/10/1995,0.055,-0.573
12:12:01.228 07/10/1995,0.054,-0.573
12:12:01.230 07/10/1995,0.053,-0.573
12:12:01.232 07/10/1995,0.051,-0.580
12:12:01.234 07/10/1995,0.049,-0.580
12:12:01.236 07/10/1995,0.047,-0.580
12:12:01.238 07/10/1995,0.045,-0.580
12:12:01.240 07/10/1995,0.044,-0.592
12:12:01.242 07/10/1995,0.042,-0.592
12:12:01.244 07/10/1995,0.040,-0.592
12:12:01.246 07/10/1995,0.038,-0.592
12:12:01.248 07/10/1995,0.036,-0.599
12:12:01.250 07/10/1995,0.033,-0.599
12:12:01.252 07/10/1995,0.030,-0.599
12:12:01.254 07/10/1995,0.026,-0.599
12:12:01.256 07/10/1995,0.021,-0.599
12:12:01.258 07/10/1995,0.015,-0.599
12:12:01.260 07/10/1995,0.008,-0.599
12:12:01.262 07/10/1995,0.001,-0.599
12:12:01.264 07/10/1995,-0.008,-0.597
12:12:01.266 07/10/1995,-0.017,-0.597
12:12:01.268 07/10/1995,-0.029,-0.597
12:12:01.270 07/10/1995,-0.040,-0.597
12:12:01.272 07/10/1995,-0.050,-0.587
12:12:01.274 07/10/1995,-0.059,-0.587
12:12:01.276 07/10/1995,-0.067,-0.587
12:12:01.278 07/10/1995,-0.076,-0.587
12:12:01.280 07/10/1995,-0.083,-0.564
12:12:01.282 07/10/1995,-0.090,-0.564
12:12:01.284 07/10/1995,-0.096,-0.564
12:12:01.286 07/10/1995,-0.103,-0.564
12:12:01.288 07/10/1995,-0.108,-0.529
12:12:01.290 07/10/1995,-0.113,-0.529
12:12:01.292 07/10/1995,-0.119,-0.529
12:12:01.294 07/10/1995,-0.125,-0.529
12:12:01.296 07/10/1995,-0.131,-0.475
12:12:01.298 07/10/1995,-0.136,-0.475
12:12:01.300 07/10/1995,-0.139,-0.475
12:12:01.302 07/10/1995,-0.143,-0.475
12:12:01.304 07/10/1995,-0.143,-0.410
12:12:01.306 07/10/1995,-0.143,-0.410
12:12:01.308 07/10/1995,-0.140,-0.410
12:12:01.310 07/10/1995,-0.137,-0.410
12:12:01.312 07/10/1995,-0.133,-0.332
12:12:01.314 07/10/1995,-0.129,-0.332
12:12:01.316 07/10/1995,-0.124,-0.332
12:12:01.318 07/10/1995,-0.120,-0.332
12:12:01.320 07/10/1995,-0.115,-0.239
12:12:01.322 07/10/1995,-0.110,-0.239
12:12:01.324 07/10/1995,-0.106,-0.239
12:12:01.326 07/10/1995,-0.102,-0.239
12:12:01.328 07/10/1995,-0.097,-0.139
12:12:01.330 07/10/1995,-0.092,-0.139
12:12:01.332 07/10/1995,-0.087,-0.139
12:12:01.334 07/10/1995,-0.082,-0.139
12:12:01.336 07/10/1995,-0.078,-0.037
12:12:01.338 07/10/1995,-0.073,-0.037
12:12:01.340 07/10/1995,-0.070,-0.037
12:12:01.342 07/10/1995,-0.066,-0.037
12:12:01.344 07/10/1995,-0.062,0.056
12:12:01.346 07/10/1995,-0.057,0.056
12:12:01.348 07/10/1995,-0.054,0.056
12:12:01.350 07/10/1995,-0.051,0.056
12:12:01.352 07/10/1995,-0.048,0.146
12:12:01.354 07/10/1995,-0.045,0.146
12:12:01.356 07/10/1995,-0.043,0.146
12:12:01.358 07/10/1995,-0.040,0.146
12:12:01.360 07/10/1995,-0.037,0.221
12:12:01.362 07/10/1995,-0.035,0.221
12:12:01.364 07/10/1995,-0.033,0.221
12:12:01.366 07/10/1995,-0.031,0.221
12:12:01.368 07/10/1995,-0.029,0.276
12:12:01.370 07/10/1995,-0.027,0.276
12:12:01.372 07/10/1995,-0.025,0.276
12:12:01.374 07/10/1995,-0.023,0.276
12:12:01.376 07/10/1995,-0.021,0.316
12:12:01.378 07/10/1995,-0.019,0.316
12:12:01.380 07/10/1995,-0.018,0.316
12:12:01.382 07/10/1995,-0.016,0.316
12:12:01.384 07/10/1995,-0.015,0.339
12:12:01.386 07/10/1995,-0.014,0.339
12:12:01.388 07/10/1995,-0.013,0.339
12:12:01.390 07/10/1995,-0.013,0.339
12:12:01.392 07/10/1995,-0.013,0.344
12:12:01.394 07/10/1995,-0.013,0.344
12:12:01.396 07/10/1995,-0.014,0.344
12:12:01.398 07/10/1995,-0.015,0.344
12:12:01.400 07/10/1995,-0.016,0.334
12:12:01.402 07/10/1995,-0.016,0.334
12:12:01.404 07/10/1995,-0.015,0.334
12:12:01.406 07/10/1995,-0.014,0.334
12:12:01.408 07/10/1995,-0.011,0.316
12:12:01.410 07/10/1995,-0.008,0.316
12:12:01.412 07/10/1995,-0.002,0.316
12:12:01.414 07/10/1995,0.003,0.316
12:12:01.416 07/10/1995,0.010,0.285
12:12:01.418 07/10/1995,0.017,0.285
12:12:01.420 07/10/1995,0.025,0.285
12:12:01.422 07/10/1995,0.032,0.285
12:12:01.424 07/10/1995,0.041,0.248
12:12:01.426 07/10/1995,0.050,0.248
12:12:01.428 07/10/1995,0.059,0.248
12:12:01.430 07/10/1995,0.069,0.248
12:12:01.432 07/10/1995,0.078,0.209
12:12:01.434 07/10/1995,0.087,0.209
12:12:01.436 07/10/1995,0.095,0.209
12:12:01.438 07/10/1995,0.103,0.209
12:12:01.440 07/10/1995,0.107,0.167
12:12:01.442 07/10/1995,0.112,0.167
12:12:01.444 07/10/1995,0.117,0.167
12:12:01.446 07/10/1995,0.122,0.167
12:12:01.448 07/10/1995,0.129,0.126
12:12:01.450 07/10/1995,0.136,0.126
12:12:01.452 07/10/1995,0.141,0.126
12:12:01.454 07/10/1995,0.147,0.126
12:12:01.456 07/10/1995,0.146,0.086
12:12:01.458 07/10/1995,0.146,0.086
12:12:01.460 07/10/1995,0.138,0.086
12:12:01.462 07/10/1995,0.130,0.086
12:12:01.464 07/10/1995,0.116,0.046
12:12:01.466 07/10/1995,0.102,0.046
12:12:01.468 07/10/1995,0.088,0.046
12:12:01.470 07/10/1995,0.075,0.046
12:12:01.472 07/10/1995,0.066,0.009
12:12:01.474 07/10/1995,0.057,0.009
12:12:01.476 07/10/1995,0.055,0.009
12:12:01.478 07/10/1995,0.053,0.009
12:12:01.480 07/10/1995,0.053,-0.030
12:12:01.482 07/10/1995,0.053,-0.030
12:12:01.484 07/10/1995,0.050,-0.030
12:12:01.486 07/10/1995,0.048,-0.030
12:12:01.488 07/10/1995,0.039,-0.058
12:12:01.490 07/10/1995,0.031,-0.058
12:12:01.492 07/10/1995,0.020,-0.058
12:12:01.494 07/10/1995,0.009,-0.058
12:12:01.496 07/10/1995,-0.007,-0.090
12:12:01.498 07/10/1995,-0.023,-0.090
12:12:01.500 07/10/1995,-0.039,-0.090
12:12:01.502 07/10/1995,-0.055,-0.090
12:12:01.504 07/10/1995,-0.070,-0.118
12:12:01.506 07/10/1995,-0.084,-0.118
12:12:01.508 07/10/1995,-0.096,-0.118
12:12:01.510 07/10/1995,-0.107,-0.118
12:12:01.512 07/10/1995,-0.114,-0.144
12:12:01.514 07/10/1995,-0.122,-0.144
12:12:01.516 07/10/1995,-0.126,-0.144
12:12:01.518 07/10/1995,-0.131,-0.144
12:12:01.520 07/10/1995,-0.132,-0.170
12:12:01.522 07/10/1995,-0.133,-0.170
12:12:01.524 07/10/1995,-0.133,-0.170
12:12:01.526 07/10/1995,-0.133,-0.170
12:12:01.528 07/10/1995,-0.133,-0.195
12:12:01.530 07/10/1995,-0.133,-0.195
12:12:01.532 07/10/1995,-0.133,-0.195
12:12:01.534 07/10/1995,-0.134,-0.195
12:12:01.536 07/10/1995,-0.135,-0.221
12:12:01.538 07/10/1995,-0.136,-0.221
12:12:01.540 07/10/1995,-0.137,-0.221
12:12:01.542 07/10/1995,-0.138,-0.221
12:12:01.544 07/10/1995,-0.139,-0.246
12:12:01.546 07/10/1995,-0.140,-0.246
12:12:01.548 07/10/1995,-0.141,-0.246
12:12:01.550 07/10/1995,-0.141,-0.246
12:12:01.552 07/10/1995,-0.142,-0.267
12:12:01.554 07/10/1995,-0.143,-0.267
12:12:01.556 07/10/1995,-0.142,-0.267
12:12:01.558 07/10/1995,-0.141,-0.267
12:12:01.560 07/10/1995,-0.140,-0.287
12:12:01.562 07/10/1995,-0.138,-0.287
12:12:01.564 07/10/1995,-0.136,-0.287
12:12:01.566 07/10/1995,-0.133,-0.287
12:12:01.568 07/10/1995,-0.130,-0.306
12:12:01.570 07/10/1995,-0.126,-0.306
12:12:01.572 07/10/1995,-0.124,-0.306
12:12:01.574 07/10/1995,-0.121,-0.306
12:12:01.576 07/10/1995,-0.118,-0.323
12:12:01.578 07/10/1995,-0.114,-0.323
12:12:01.580 07/10/1995,-0.111,-0.323
12:12:01.582 07/10/1995,-0.108,-0.323
12:12:01.584 07/10/1995,-0.105,-0.337
12:12:01.586 07/10/1995,-0.103,-0.337
12:12:01.588 07/10/1995,-0.100,-0.337
12:12:01.590 07/10/1995,-0.097,-0.337
12:12:01.592 07/10/1995,-0.097,-0.348
12:12:01.594 07/10/1995,-0.096,-0.348
12:12:01.596 07/10/1995,-0.097,-0.348
12:12:01.598 07/10/1995,-0.097,-0.348
12:12:01.600 07/10/1995,-0.093,-0.352
12:12:01.602 07/10/1995,-0.090,-0.352
12:12:01.604 07/10/1995,-0.073,-0.352
12:12:01.606 07/10/1995,-0.057,-0.352
12:12:01.608 07/10/1995,-0.022,-0.359
12:12:01.610 07/10/1995,0.014,-0.359
12:12:01.612 07/10/1995,0.075,-0.359
12:12:01.614 07/10/1995,0.135,-0.359
12:12:01.616 07/10/1995,0.215,-0.366
12:12:01.618 07/10/1995,0.295,-0.366
12:12:01.620 07/10/1995,0.379,-0.366
12:12:01.622 07/10/1995,0.462,-0.366
12:12:01.624 07/10/1995,0.526,-0.366
12:12:01.626 07/10/1995,0.590,-0.366
12:12:01.628 07/10/1995,0.616,-0.366
12:12:01.630 07/10/1995,0.643,-0.366
12:12:01.632 07/10/1995,0.624,-0.336
12:12:01.634 07/10/1995,0.606,-0.336
12:12:01.636 07/10/1995,0.555,-0.336
12:12:01.638 07/10/1995,0.503,-0.336
12:12:01.640 07/10/1995,0.438,-0.338
12:12:01.642 07/10/1995,0.374,-0.338
12:12:01.644 07/10/1995,0.315,-0.338
12:12:01.646 07/10/1995,0.257,-0.338
12:12:01.648 07/10/1995,0.219,-0.338
12:12:01.650 07/10/1995,0.181,-0.338
12:12:01.652 07/10/1995,0.167,-0.338
12:12:01.654 07/10/1995,0.153,-0.338
12:12:01.656 07/10/1995,0.157,-0.340
12:12:01.658 07/10/1995,0.161,-0.340
12:12:01.660 07/10/1995,0.172,-0.340
12:12:01.662 07/10/1995,0.184,-0.340
12:12:01.664 07/10/1995,0.194,-0.340
12:12:01.666 07/10/1995,0.205,-0.340
12:12:01.668 07/10/1995,0.212,-0.340
12:12:01.670 07/10/1995,0.219,-0.340
12:12:01.672 07/10/1995,0.224,-0.344
12:12:01.674 07/10/1995,0.229,-0.344
12:12:01.676 07/10/1995,0.235,-0.344
12:12:01.678 07/10/1995,0.242,-0.344
12:12:01.680 07/10/1995,0.252,-0.347
12:12:01.682 07/10/1995,0.261,-0.347
12:12:01.684 07/10/1995,0.267,-0.347
12:12:01.686 07/10/1995,0.272,-0.347
12:12:01.688 07/10/1995,0.266,-0.351
12:12:01.690 07/10/1995,0.260,-0.351
12:12:01.692 07/10/1995,0.241,-0.351
12:12:01.694 07/10/1995,0.222,-0.351
12:12:01.696 07/10/1995,0.192,-0.351
12:12:01.698 07/10/1995,0.162,-0.351
12:12:01.700 07/10/1995,0.130,-0.351
12:12:01.702 07/10/1995,0.097,-0.351
12:12:01.704 07/10/1995,0.069,-0.358
12:12:01.706 07/10/1995,0.041,-0.358
12:12:01.708 07/10/1995,0.020,-0.358
12:12:01.710 07/10/1995,-0.001,-0.358
12:12:01.712 07/10/1995,-0.015,-0.363
12:12:01.714 07/10/1995,-0.029,-0.363
12:12:01.716 07/10/1995,-0.038,-0.363
12:12:01.718 07/10/1995,-0.048,-0.363
12:12:01.720 07/10/1995,-0.052,-0.372
12:12:01.722 07/10/1995,-0.056,-0.372
12:12:01.724 07/10/1995,-0.057,-0.372
12:12:01.726 07/10/1995,-0.057,-0.372
12:12:01.728 07/10/1995,-0.056,-0.379
12:12:01.730 07/10/1995,-0.055,-0.379
12:12:01.732 07/10/1995,-0.055,-0.379
12:12:01.734 07/10/1995,-0.055,-0.379
12:12:01.736 07/10/1995,-0.056,-0.386
12:12:01.738 07/10/1995,-0.057,-0.386
12:12:01.740 07/10/1995,-0.058,-0.386
12:12:01.742 07/10/1995,-0.059,-0.386
12:12:01.744 07/10/1995,-0.060,-0.393
12:12:01.746 07/10/1995,-0.060,-0.393
12:12:01.748 07/10/1995,-0.062,-0.393
12:12:01.750 07/10/1995,-0.064,-0.393
12:12:01.752 07/10/1995,-0.063,-0.398
12:12:01.754 07/10/1995,-0.063,-0.398
12:12:01.756 07/10/1995,-0.062,-0.398
12:12:01.758 07/10/1995,-0.060,-0.398
12:12:01.760 07/10/1995,-0.060,-0.407
12:12:01.762 07/10/1995,-0.059,-0.407
12:12:01.764 07/10/1995,-0.059,-0.407
12:12:01.766 07/10/1995,-0.059,-0.407
12:12:01.768 07/10/1995,-0.059,-0.414
12:12:01.770 07/10/1995,-0.059,-0.414
12:12:01.772 07/10/1995,-0.059,-0.414
12:12:01.774 07/10/1995,-0.059,-0.414
12:12:01.776 07/10/1995,-0.059,-0.425
12:12:01.778 07/10/1995,-0.058,-0.425
12:12:01.780 07/10/1995,-0.056,-0.425
12:12:01.782 07/10/1995,-0.054,-0.425
12:12:01.784 07/10/1995,-0.050,-0.432
12:12:01.786 07/10/1995,-0.046,-0.432
12:12:01.788 07/10/1995,-0.043,-0.432
12:12:01.790 07/10/1995,-0.039,-0.432
12:12:01.792 07/10/1995,-0.037,-0.442
12:12:01.794 07/10/1995,-0.035,-0.442
12:12:01.796 07/10/1995,-0.033,-0.442
12:12:01.798 07/10/1995,-0.031,-0.442
12:12:01.800 07/10/1995,-0.029,-0.453
12:12:01.802 07/10/1995,-0.027,-0.453
12:12:01.804 07/10/1995,-0.025,-0.453
12:12:01.806 07/10/1995,-0.023,-0.453
12:12:01.808 07/10/1995,-0.021,-0.465
12:12:01.810 07/10/1995,-0.018,-0.465
12:12:01.812 07/10/1995,-0.015,-0.465
12:12:01.814 07/10/1995,-0.011,-0.465
12:12:01.816 07/10/1995,-0.006,-0.471
12:12:01.818 07/10/1995,-0.001,-0.471
12:12:01.820 07/10/1995,0.004,-0.471
12:12:01.822 07/10/1995,0.009,-0.471
12:12:01.824 07/10/1995,0.013,-0.481
12:12:01.826 07/10/1995,0.017,-0.481
12:12:01.828 07/10/1995,0.021,-0.481
12:12:01.830 07/10/1995,0.025,-0.481
12:12:01.832 07/10/1995,0.027,-0.492
12:12:01.834 07/10/1995,0.029,-0.492
12:12:01.836 07/10/1995,0.031,-0.492
12:12:01.838 07/10/1995,0.033,-0.492
12:12:01.840 07/10/1995,0.037,-0.499
12:12:01.842 07/10/1995,0.040,-0.499
12:12:01.844 07/10/1995,0.044,-0.499
12:12:01.846 07/10/1995,0.048,-0.499
12:12:01.848 07/10/1995,0.050,-0.511
12:12:01.850 07/10/1995,0.052,-0.511
12:12:01.852 07/10/1995,0.053,-0.511
12:12:01.854 07/10/1995,0.054,-0.511
12:12:01.856 07/10/1995,0.053,-0.515
12:12:01.858 07/10/1995,0.052,-0.515
12:12:01.860 07/10/1995,0.049,-0.515
12:12:01.862 07/10/1995,0.045,-0.515
12:12:01.864 07/10/1995,0.041,-0.520
12:12:01.866 07/10/1995,0.037,-0.520
12:12:01.868 07/10/1995,0.031,-0.520
12:12:01.870 07/10/1995,0.026,-0.520
12:12:01.872 07/10/1995,0.021,-0.520
12:12:01.874 07/10/1995,0.016,-0.520
12:12:01.876 07/10/1995,0.010,-0.520
12:12:01.878 07/10/1995,0.004,-0.520
12:12:01.880 07/10/1995,-0.003,-0.518
12:12:01.882 07/10/1995,-0.011,-0.518
12:12:01.884 07/10/1995,-0.020,-0.518
12:12:01.886 07/10/1995,-0.029,-0.518
12:12:01.888 07/10/1995,-0.040,-0.504
12:12:01.890 07/10/1995,-0.051,-0.504
12:12:01.892 07/10/1995,-0.062,-0.504
12:12:01.894 07/10/1995,-0.073,-0.504
12:12:01.896 07/10/1995,-0.084,-0.483
12:12:01.898 07/10/1995,-0.095,-0.483
12:12:01.900 07/10/1995,-0.103,-0.483
12:12:01.902 07/10/1995,-0.111,-0.483
12:12:01.904 07/10/1995,-0.118,-0.449
12:12:01.906 07/10/1995,-0.125,-0.449
12:12:01.908 07/10/1995,-0.132,-0.449
12:12:01.910 07/10/1995,-0.138,-0.449
12:12:01.912 07/10/1995,-0.143,-0.400
12:12:01.914 07/10/1995,-0.147,-0.400
12:12:01.916 07/10/1995,-0.148,-0.400
12:12:01.918 07/10/1995,-0.150,-0.400
12:12:01.920 07/10/1995,-0.147,-0.336
12:12:01.922 07/10/1995,-0.145,-0.336
12:12:01.924 07/10/1995,-0.140,-0.336
12:12:01.926 07/10/1995,-0.136,-0.336
12:12:01.928 07/10/1995,-0.130,-0.257
12:12:01.930 07/10/1995,-0.124,-0.257
12:12:01.932 07/10/1995,-0.119,-0.257
12:12:01.934 07/10/1995,-0.113,-0.257
12:12:01.936 07/10/1995,-0.109,-0.169
12:12:01.938 07/10/1995,-0.105,-0.169
12:12:01.940 07/10/1995,-0.101,-0.169
12:12:01.942 07/10/1995,-0.097,-0.169
12:12:01.944 07/10/1995,-0.093,-0.071
12:12:01.946 07/10/1995,-0.090,-0.071
12:12:01.948 07/10/1995,-0.085,-0.071
12:12:01.950 07/10/1995,-0.081,-0.071
12:12:01.952 07/10/1995,-0.077,0.028
12:12:01.954 07/10/1995,-0.073,0.028
12:12:01.956 07/10/1995,-0.069,0.028
12:12:01.958 07/10/1995,-0.065,0.028
12:12:01.960 07/10/1995,-0.059,0.125
12:12:01.962 07/10/1995,-0.054,0.125
12:12:01.964 07/10/1995,-0.050,0.125
12:12:01.966 07/10/1995,-0.045,0.125
12:12:01.968 07/10/1995,-0.042,0.210
12:12:01.970 07/10/1995,-0.039,0.210
12:12:01.972 07/10/1995,-0.037,0.210
12:12:01.974 07/10/1995,-0.035,0.210
12:12:01.976 07/10/1995,-0.033,0.284
12:12:01.978 07/10/1995,-0.031,0.284
12:12:01.980 07/10/1995,-0.030,0.284
12:12:01.982 07/10/1995,-0.028,0.284
12:12:01.984 07/10/1995,-0.027,0.344
12:12:01.986 07/10/1995,-0.026,0.344
12:12:01.988 07/10/1995,-0.025,0.344
12:12:01.990 07/10/1995,-0.025,0.344
12:12:01.992 07/10/1995,-0.024,0.384
12:12:01.994 07/10/1995,-0.023,0.384
12:12:01.996 07/10/1995,-0.022,0.384
12:12:01.998 07/10/1995,-0.022,0.384
12:12:02.000 07/10/1995,-0.022,0.403
12:12:02.002 07/10/1995,-0.022,0.403
12:12:02.004 07/10/1995,-0.022,0.403
12:12:02.006 07/10/1995,-0.022,0.403
12:12:02.008 07/10/1995,-0.022,0.409
12:12:02.010 07/10/1995,-0.023,0.409
12:12:02.012 07/10/1995,-0.023,0.409
12:12:02.014 07/10/1995,-0.024,0.409
12:12:02.016 07/10/1995,-0.024,0.400
12:12:02.018 07/10/1995,-0.024,0.400
12:12:02.020 07/10/1995,-0.023,0.400
12:12:02.022 07/10/1995,-0.023,0.400
12:12:02.024 07/10/1995,-0.021,0.377
12:12:02.026 07/10/1995,-0.018,0.377
12:12:02.028 07/10/1995,-0.014,0.377
12:12:02.030 07/10/1995,-0.010,0.377
12:12:02.032 07/10/1995,-0.003,0.344
12:12:02.034 07/10/1995,0.003,0.344
12:12:02.036 07/10/1995,0.011,0.344
12:12:02.038 07/10/1995,0.019,0.344
12:12:02.040 07/10/1995,0.030,0.303
12:12:02.042 07/10/1995,0.040,0.303
12:12:02.044 07/10/1995,0.052,0.303
12:12:02.046 07/10/1995,0.065,0.303
12:12:02.048 07/10/1995,0.076,0.262
12:12:02.050 07/10/1995,0.087,0.262
12:12:02.052 07/10/1995,0.095,0.262
12:12:02.054 07/10/1995,0.103,0.262
12:12:02.056 07/10/1995,0.106,0.215
12:12:02.058 07/10/1995,0.109,0.215
12:12:02.060 07/10/1995,0.113,0.215
12:12:02.062 07/10/1995,0.117,0.215
12:12:02.064 07/10/1995,0.123,0.169
12:12:02.066 07/10/1995,0.129,0.169
12:12:02.068 07/10/1995,0.136,0.169
12:12:02.070 07/10/1995,0.143,0.169
12:12:02.072 07/10/1995,0.145,0.122
12:12:02.074 07/10/1995,0.148,0.122
12:12:02.076 07/10/1995,0.142,0.122
12:12:02.078 07/10/1995,0.136,0.122
12:12:02.080 07/10/1995,0.121,0.081
12:12:02.082 07/10/1995,0.107,0.081
12:12:02.084 07/10/1995,0.092,0.081
12:12:02.086 07/10/1995,0.077,0.081
12:12:02.088 07/10/1995,0.067,0.042
12:12:02.090 07/10/1995,0.057,0.042
12:12:02.092 07/10/1995,0.053,0.042
12:12:02.094 07/10/1995,0.050,0.042
12:12:02.096 07/10/1995,0.049,0.007
12:12:02.098 07/10/1995,0.048,0.007
12:12:02.100 07/10/1995,0.044,0.007
12:12:02.102 07/10/1995,0.041,0.007
12:12:02.104 07/10/1995,0.033,-0.028
12:12:02.106 07/10/1995,0.026,-0.028
12:12:02.108 07/10/1995,0.014,-0.028
12:12:02.110 07/10/1995,0.002,-0.028
12:12:02.112 07/10/1995,-0.012,-0.053
12:12:02.114 07/10/1995,-0.027,-0.053
12:12:02.116 07/10/1995,-0.042,-0.053
12:12:02.118 07/10/1995,-0.057,-0.053
12:12:02.120 07/10/1995,-0.071,-0.081
12:12:02.122 07/10/1995,-0.084,-0.081
12:12:02.124 07/10/1995,-0.094,-0.081
12:12:02.126 07/10/1995,-0.104,-0.081
12:12:02.128 07/10/1995,-0.110,-0.102
12:12:02.130 07/10/1995,-0.117,-0.102
12:12:02.132 07/10/1995,-0.120,-0.102
12:12:02.134 07/10/1995,-0.124,-0.102
12:12:02.136 07/10/1995,-0.126,-0.122
12:12:02.138 07/10/1995,-0.127,-0.122
12:12:02.140 07/10/1995,-0.129,-0.122
12:12:02.142 07/10/1995,-0.131,-0.122
12:12:02.144 07/10/1995,-0.131,-0.110
12:12:02.146 07/10/1995,-0.132,-0.110
12:12:02.148 07/10/1995,-0.131,-0.110
12:12:02.150 07/10/1995,-0.131,-0.110
12:12:02.152 07/10/1995,-0.131,-0.128
12:12:02.154 07/10/1995,-0.132,-0.128
12:12:02.156 07/10/1995,-0.133,-0.128
12:12:02.158 07/10/1995,-0.135,-0.128
12:12:02.160 07/10/1995,-0.137,-0.147
12:12:02.162 07/10/1995,-0.139,-0.147
12:12:02.164 07/10/1995,-0.140,-0.147
12:12:02.166 07/10/1995,-0.141,-0.147
12:12:02.168 07/10/1995,-0.140,-0.164
12:12:02.170 07/10/1995,-0.138,-0.164
12:12:02.172 07/10/1995,-0.136,-0.164
12:12:02.174 07/10/1995,-0.133,-0.164
12:12:02.176 07/10/1995,-0.129,-0.179
12:12:02.178 07/10/1995,-0.125,-0.179
12:12:02.180 07/10/1995,-0.122,-0.179
12:12:02.182 07/10/1995,-0.119,-0.179
12:12:02.184 07/10/1995,-0.117,-0.194
12:12:02.186 07/10/1995,-0.114,-0.194
12:12:02.188 07/10/1995,-0.114,-0.194
12:12:02.190 07/10/1995,-0.113,-0.194
12:12:02.192 07/10/1995,-0.112,-0.210
12:12:02.194 07/10/1995,-0.111,-0.210
12:12:02.196 07/10/1995,-0.110,-0.210
12:12:02.198 07/10/1995,-0.109,-0.210
12:12:02.200 07/10/1995,-0.108,-0.222
12:12:02.202 07/10/1995,-0.107,-0.222
12:12:02.204 07/10/1995,-0.105,-0.222
12:12:02.206 07/10/1995,-0.104,-0.222
12:12:02.208 07/10/1995,-0.103,-0.235
12:12:02.210 07/10/1995,-0.102,-0.235
12:12:02.212 07/10/1995,-0.100,-0.235
12:12:02.214 07/10/1995,-0.098,-0.235
12:12:02.216 07/10/1995,-0.093,-0.240
12:12:02.218 07/10/1995,-0.089,-0.240
12:12:02.220 07/10/1995,-0.073,-0.240
12:12:02.222 07/10/1995,-0.058,-0.240
12:12:02.224 07/10/1995,-0.023,-0.247
12:12:02.226 07/10/1995,0.012,-0.247
12:12:02.228 07/10/1995,0.073,-0.247
12:12:02.230 07/10/1995,0.135,-0.247
12:12:02.232 07/10/1995,0.218,-0.252
12:12:02.234 07/10/1995,0.300,-0.252
12:12:02.236 07/10/1995,0.386,-0.252
12:12:02.238 07/10/1995,0.471,-0.252
12:12:02.240 07/10/1995,0.536,-0.257
12:12:02.242 07/10/1995,0.600,-0.257
12:12:02.244 07/10/1995,0.626,-0.257
12:12:02.246 07/10/1995,0.651,-0.257
12:12:02.248 07/10/1995,0.633,-0.262
12:12:02.250 07/10/1995,0.614,-0.262
12:12:02.252 07/10/1995,0.562,-0.262
12:12:02.254 07/10/1995,0.510,-0.262
12:12:02.256 07/10/1995,0.444,-0.264
12:12:02.258 07/10/1995,0.379,-0.264
12:12:02.260 07/10/1995,0.322,-0.264
12:12:02.262 07/10/1995,0.265,-0.264
12:12:02.264 07/10/1995,0.227,-0.266
12:12:02.266 07/10/1995,0.190,-0.266
12:12:02.268 07/10/1995,0.175,-0.266
12:12:02.270 07/10/1995,0.160,-0.266
12:12:02.272 07/10/1995,0.162,-0.269
12:12:02.274 07/10/1995,0.164,-0.269
12:12:02.276 07/10/1995,0.173,-0.269
12:12:02.278 07/10/1995,0.183,-0.269
12:12:02.280 07/10/1995,0.191,-0.276
12:12:02.282 07/10/1995,0.200,-0.276
12:12:02.284 07/10/1995,0.204,-0.276
12:12:02.286 07/10/1995,0.208,-0.276
12:12:02.288 07/10/1995,0.213,-0.278
12:12:02.290 07/10/1995,0.217,-0.278
12:12:02.292 07/10/1995,0.226,-0.278
12:12:02.294 07/10/1995,0.234,-0.278
12:12:02.296 07/10/1995,0.247,-0.280
12:12:02.298 07/10/1995,0.259,-0.280
12:12:02.300 07/10/1995,0.266,-0.280
12:12:02.302 07/10/1995,0.273,-0.280
12:12:02.304 07/10/1995,0.268,-0.287
12:12:02.306 07/10/1995,0.262,-0.287
12:12:02.308 07/10/1995,0.241,-0.287
12:12:02.310 07/10/1995,0.220,-0.287
12:12:02.312 07/10/1995,0.188,-0.294
12:12:02.314 07/10/1995,0.157,-0.294
12:12:02.316 07/10/1995,0.123,-0.294
12:12:02.318 07/10/1995,0.090,-0.294
12:12:02.320 07/10/1995,0.062,-0.301
12:12:02.322 07/10/1995,0.033,-0.301
12:12:02.324 07/10/1995,0.014,-0.301
12:12:02.326 07/10/1995,-0.005,-0.301
12:12:02.328 07/10/1995,-0.019,-0.308
12:12:02.330 07/10/1995,-0.032,-0.308
12:12:02.332 07/10/1995,-0.041,-0.308
12:12:02.334 07/10/1995,-0.050,-0.308
12:12:02.336 07/10/1995,-0.054,-0.315
12:12:02.338 07/10/1995,-0.058,-0.315
12:12:02.340 07/10/1995,-0.059,-0.315
12:12:02.342 07/10/1995,-0.059,-0.315
12:12:02.344 07/10/1995,-0.058,-0.322
12:12:02.346 07/10/1995,-0.056,-0.322
12:12:02.348 07/10/1995,-0.056,-0.322
12:12:02.350 07/10/1995,-0.055,-0.322
12:12:02.352 07/10/1995,-0.055,-0.329
12:12:02.354 07/10/1995,-0.055,-0.329
12:12:02.356 07/10/1995,-0.056,-0.329
12:12:02.358 07/10/1995,-0.056,-0.329
12:12:02.360 07/10/1995,-0.056,-0.339
12:12:02.362 07/10/1995,-0.056,-0.339
12:12:02.364 07/10/1995,-0.056,-0.339
12:12:02.366 07/10/1995,-0.055,-0.339
12:12:02.368 07/10/1995,-0.056,-0.348
12:12:02.370 07/10/1995,-0.056,-0.348
12:12:02.372 07/10/1995,-0.058,-0.348
12:12:02.374 07/10/1995,-0.060,-0.348
12:12:02.376 07/10/1995,-0.062,-0.357
12:12:02.378 07/10/1995,-0.064,-0.357
12:12:02.380 07/10/1995,-0.064,-0.357
12:12:02.382 07/10/1995,-0.064,-0.357
12:12:02.384 07/10/1995,-0.063,-0.362
12:12:02.386 07/10/1995,-0.063,-0.362
12:12:02.388 07/10/1995,-0.062,-0.362
12:12:02.390 07/10/1995,-0.060,-0.362
12:12:02.392 07/10/1995,-0.059,-0.369
12:12:02.394 07/10/1995,-0.058,-0.369
12:12:02.396 07/10/1995,-0.057,-0.369
12:12:02.398 07/10/1995,-0.055,-0.369
12:12:02.400 07/10/1995,-0.052,-0.381
12:12:02.402 07/10/1995,-0.050,-0.381
12:12:02.404 07/10/1995,-0.046,-0.381
12:12:02.406 07/10/1995,-0.043,-0.381
12:12:02.408 07/10/1995,-0.041,-0.388
12:12:02.410 07/10/1995,-0.039,-0.388
12:12:02.412 07/10/1995,-0.036,-0.388
12:12:02.414 07/10/1995,-0.033,-0.388
12:12:02.416 07/10/1995,-0.030,-0.397
12:12:02.418 07/10/1995,-0.026,-0.397
12:12:02.420 07/10/1995,-0.022,-0.397
12:12:02.422 07/10/1995,-0.017,-0.397
12:12:02.424 07/10/1995,-0.011,-0.404
12:12:02.426 07/10/1995,-0.005,-0.404
12:12:02.428 07/10/1995,0.001,-0.404
12:12:02.430 07/10/1995,0.006,-0.404
12:12:02.432 07/10/1995,0.012,-0.411
12:12:02.434 07/10/1995,0.017,-0.411
12:12:02.436 07/10/1995,0.021,-0.411
12:12:02.438 07/10/1995,0.025,-0.411
12:12:02.440 07/10/1995,0.028,-0.420
12:12:02.442 07/10/1995,0.030,-0.420
12:12:02.444 07/10/1995,0.033,-0.420
12:12:02.446 07/10/1995,0.037,-0.420
12:12:02.448 07/10/1995,0.041,-0.427
12:12:02.450 07/10/1995,0.045,-0.427
12:12:02.452 07/10/1995,0.049,-0.427
12:12:02.454 07/10/1995,0.052,-0.427
12:12:02.456 07/10/1995,0.053,-0.434
12:12:02.458 07/10/1995,0.055,-0.434
12:12:02.460 07/10/1995,0.056,-0.434
12:12:02.462 07/10/1995,0.057,-0.434
12:12:02.464 07/10/1995,0.058,-0.444
12:12:02.466 07/10/1995,0.058,-0.444
12:12:02.468 07/10/1995,0.059,-0.444
12:12:02.470 07/10/1995,0.059,-0.444
12:12:02.472 07/10/1995,0.059,-0.451
12:12:02.474 07/10/1995,0.058,-0.451
12:12:02.476 07/10/1995,0.056,-0.451
12:12:02.478 07/10/1995,0.054,-0.451
12:12:02.480 07/10/1995,0.049,-0.458
12:12:02.482 07/10/1995,0.044,-0.458
12:12:02.484 07/10/1995,0.038,-0.458
12:12:02.486 07/10/1995,0.031,-0.458
12:12:02.488 07/10/1995,0.024,-0.458
12:12:02.490 07/10/1995,0.017,-0.458
12:12:02.492 07/10/1995,0.010,-0.458
12:12:02.494 07/10/1995,0.002,-0.458
12:12:02.496 07/10/1995,-0.006,-0.458
12:12:02.498 07/10/1995,-0.014,-0.458
12:12:02.500 07/10/1995,-0.024,-0.458
12:12:02.502 07/10/1995,-0.035,-0.458
12:12:02.504 07/10/1995,-0.045,-0.449
12:12:02.506 07/10/1995,-0.055,-0.449
12:12:02.508 07/10/1995,-0.065,-0.449
12:12:02.510 07/10/1995,-0.076,-0.449
12:12:02.512 07/10/1995,-0.085,-0.427
12:12:02.514 07/10/1995,-0.095,-0.427
12:12:02.516 07/10/1995,-0.103,-0.427
12:12:02.518 07/10/1995,-0.110,-0.427
12:12:02.520 07/10/1995,-0.116,-0.392
12:12:02.522 07/10/1995,-0.122,-0.392
12:12:02.524 07/10/1995,-0.128,-0.392
12:12:02.526 07/10/1995,-0.134,-0.392
12:12:02.528 07/10/1995,-0.138,-0.345
12:12:02.530 07/10/1995,-0.143,-0.345
12:12:02.532 07/10/1995,-0.145,-0.345
12:12:02.534 07/10/1995,-0.147,-0.345
12:12:02.536 07/10/1995,-0.146,-0.280
12:12:02.538 07/10/1995,-0.145,-0.280
12:12:02.540 07/10/1995,-0.141,-0.280
12:12:02.542 07/10/1995,-0.137,-0.280
12:12:02.544 07/10/1995,-0.133,-0.205
12:12:02.546 07/10/1995,-0.129,-0.205
12:12:02.548 07/10/1995,-0.125,-0.205
12:12:02.550 07/10/1995,-0.121,-0.205
12:12:02.552 07/10/1995,-0.117,-0.114
12:12:02.554 07/10/1995,-0.113,-0.114
12:12:02.556 07/10/1995,-0.109,-0.114
12:12:02.558 07/10/1995,-0.105,-0.114
12:12:02.560 07/10/1995,-0.100,-0.014
12:12:02.562 07/10/1995,-0.096,-0.014
12:12:02.564 07/10/1995,-0.091,-0.014
12:12:02.566 07/10/1995,-0.086,-0.014
12:12:02.568 07/10/1995,-0.081,0.085
12:12:02.570 07/10/1995,-0.076,0.085
12:12:02.572 07/10/1995,-0.071,0.085
12:12:02.574 07/10/1995,-0.067,0.085
12:12:02.576 07/10/1995,-0.064,0.185
12:12:02.578 07/10/1995,-0.060,0.185
12:12:02.580 07/10/1995,-0.058,0.185
12:12:02.582 07/10/1995,-0.056,0.185
12:12:02.584 07/10/1995,-0.056,0.274
12:12:02.586 07/10/1995,-0.055,0.274
12:12:02.588 07/10/1995,-0.055,0.274
12:12:02.590 07/10/1995,-0.055,0.274
12:12:02.592 07/10/1995,-0.056,0.350
12:12:02.594 07/10/1995,-0.057,0.350
12:12:02.596 07/10/1995,-0.058,0.350
12:12:02.598 07/10/1995,-0.058,0.350
12:12:02.600 07/10/1995,-0.057,0.409
12:12:02.602 07/10/1995,-0.056,0.409
12:12:02.604 07/10/1995,-0.056,0.409
12:12:02.606 07/10/1995,-0.055,0.409
12:12:02.608 07/10/1995,-0.055,0.454
12:12:02.610 07/10/1995,-0.055,0.454
12:12:02.612 07/10/1995,-0.055,0.454
12:12:02.614 07/10/1995,-0.055,0.454
12:12:02.616 07/10/1995,-0.054,0.477
12:12:02.618 07/10/1995,-0.053,0.477
12:12:02.620 07/10/1995,-0.052,0.477
12:12:02.622 07/10/1995,-0.051,0.477
12:12:02.624 07/10/1995,-0.049,0.484
12:12:02.626 07/10/1995,-0.048,0.484
12:12:02.628 07/10/1995,-0.048,0.484
12:12:02.630 07/10/1995,-0.049,0.484
12:12:02.632 07/10/1995,-0.050,0.474
12:12:02.634 07/10/1995,-0.051,0.474
12:12:02.636 07/10/1995,-0.051,0.474
12:12:02.638 07/10/1995,-0.052,0.474
12:12:02.640 07/10/1995,-0.050,0.451
12:12:02.642 07/10/1995,-0.049,0.451
12:12:02.644 07/10/1995,-0.043,0.451
12:12:02.646 07/10/1995,-0.038,0.451
12:12:02.648 07/10/1995,-0.030,0.423
12:12:02.650 07/10/1995,-0.023,0.423
12:12:02.652 07/10/1995,-0.013,0.423
12:12:02.654 07/10/1995,-0.004,0.423
12:12:02.656 07/10/1995,0.006,0.406
12:12:02.658 07/10/1995,0.016,0.406
12:12:02.660 07/10/1995,0.025,0.406
12:12:02.662 07/10/1995,0.035,0.406
12:12:02.664 07/10/1995,0.042,0.362
12:12:02.666 07/10/1995,0.049,0.362
12:12:02.668 07/10/1995,0.053,0.362
12:12:02.670 07/10/1995,0.058,0.362
12:12:02.672 07/10/1995,0.062,0.318
12:12:02.674 07/10/1995,0.065,0.318
12:12:02.676 07/10/1995,0.070,0.318
12:12:02.678 07/10/1995,0.075,0.318
12:12:02.680 07/10/1995,0.082,0.271
12:12:02.682 07/10/1995,0.090,0.271
12:12:02.684 07/10/1995,0.096,0.271
12:12:02.686 07/10/1995,0.103,0.271
12:12:02.688 07/10/1995,0.104,0.222
12:12:02.690 07/10/1995,0.105,0.222
12:12:02.692 07/10/1995,0.097,0.222
12:12:02.694 07/10/1995,0.090,0.222
12:12:02.696 07/10/1995,0.076,0.177
12:12:02.698 07/10/1995,0.062,0.177
12:12:02.700 07/10/1995,0.048,0.177
12:12:02.702 07/10/1995,0.035,0.177
12:12:02.704 07/10/1995,0.025,0.138
12:12:02.706 07/10/1995,0.016,0.138
12:12:02.708 07/10/1995,0.013,0.138
12:12:02.710 07/10/1995,0.010,0.138
12:12:02.712 07/10/1995,0.008,0.101
12:12:02.714 07/10/1995,0.005,0.101
12:12:02.716 07/10/1995,0.001,0.101
12:12:02.718 07/10/1995,-0.004,0.101
12:12:02.720 07/10/1995,-0.013,0.070
12:12:02.722 07/10/1995,-0.022,0.070
12:12:02.724 07/10/1995,-0.033,0.070
12:12:02.726 07/10/1995,-0.045,0.070
12:12:02.728 07/10/1995,-0.059,0.035
12:12:02.730 07/10/1995,-0.073,0.035
12:12:02.732 07/10/1995,-0.087,0.035
12:12:02.734 07/10/1995,-0.100,0.035
12:12:02.736 07/10/1995,-0.112,0.011
12:12:02.738 07/10/1995,-0.123,0.011
12:12:02.740 07/10/1995,-0.133,0.011
12:12:02.742 07/10/1995,-0.143,0.011
12:12:02.744 07/10/1995,-0.150,-0.014
12:12:02.746 07/10/1995,-0.157,-0.014
12:12:02.748 07/10/1995,-0.160,-0.014
12:12:02.750 07/10/1995,-0.164,-0.014
12:12:02.752 07/10/1995,-0.166,-0.035
12:12:02.754 07/10/1995,-0.167,-0.035
12:12:02.756 07/10/1995,-0.168,-0.035
12:12:02.758 07/10/1995,-0.170,-0.035
12:12:02.760 07/10/1995,-0.170,-0.059
12:12:02.762 07/10/1995,-0.171,-0.059
12:12:02.764 07/10/1995,-0.171,-0.059
12:12:02.766 07/10/1995,-0.171,-0.059
12:12:02.768 07/10/1995,-0.171,-0.077
12:12:02.770 07/10/1995,-0.171,-0.077
12:12:02.772 07/10/1995,-0.171,-0.077
12:12:02.774 07/10/1995,-0.172,-0.077
12:12:02.776 07/10/1995,-0.174,-0.101
12:12:02.778 07/10/1995,-0.176,-0.101
12:12:02.780 07/10/1995,-0.179,-0.101
12:12:02.782 07/10/1995,-0.181,-0.101
12:12:02.784 07/10/1995,-0.183,-0.119
12:12:02.786 07/10/1995,-0.184,-0.119
12:12:02.788 07/10/1995,-0.182,-0.119
12:12:02.790 07/10/1995,-0.180,-0.119
12:12:02.792 07/10/1995,-0.178,-0.138
12:12:02.794 07/10/1995,-0.176,-0.138
12:12:02.796 07/10/1995,-0.172,-0.138
12:12:02.798 07/10/1995,-0.168,-0.138
12:12:02.800 07/10/1995,-0.164,-0.157
12:12:02.802 07/10/1995,-0.159,-0.157
12:12:02.804 07/10/1995,-0.156,-0.157
12:12:02.806 07/10/1995,-0.152,-0.157
12:12:02.808 07/10/1995,-0.151,-0.177
12:12:02.810 07/10/1995,-0.150,-0.177
12:12:02.812 07/10/1995,-0.151,-0.177
12:12:02.814 07/10/1995,-0.151,-0.177
12:12:02.816 07/10/1995,-0.153,-0.194
12:12:02.818 07/10/1995,-0.156,-0.194
12:12:02.820 07/10/1995,-0.157,-0.194
12:12:02.822 07/10/1995,-0.159,-0.194
12:12:02.824 07/10/1995,-0.160,-0.205
12:12:02.826 07/10/1995,-0.161,-0.205
12:12:02.828 07/10/1995,-0.159,-0.205
12:12:02.830 07/10/1995,-0.157,-0.205
12:12:02.832 07/10/1995,-0.147,-0.222
12:12:02.834 07/10/1995,-0.137,-0.222
12:12:02.836 07/10/1995,-0.114,-0.222
12:12:02.838 07/10/1995,-0.092,-0.222
12:12:02.840 07/10/1995,-0.052,-0.234
12:12:02.842 07/10/1995,-0.013,-0.234
12:12:02.844 07/10/1995,0.046,-0.234
12:12:02.846 07/10/1995,0.106,-0.234
12:12:02.848 07/10/1995,0.180,-0.245
12:12:02.850 07/10/1995,0.254,-0.245
12:12:02.852 07/10/1995,0.324,-0.245
12:12:02.854 07/10/1995,0.394,-0.245
12:12:02.856 07/10/1995,0.441,-0.252
12:12:02.858 07/10/1995,0.488,-0.252
12:12:02.860 07/10/1995,0.499,-0.252
12:12:02.862 07/10/1995,0.510,-0.252
12:12:02.864 07/10/1995,0.484,-0.264
12:12:02.866 07/10/1995,0.459,-0.264
12:12:02.868 07/10/1995,0.410,-0.264
12:12:02.870 07/10/1995,0.361,-0.264
12:12:02.872 07/10/1995,0.307,-0.269
12:12:02.874 07/10/1995,0.253,-0.269
12:12:02.876 07/10/1995,0.210,-0.269
12:12:02.878 07/10/1995,0.167,-0.269
12:12:02.880 07/10/1995,0.143,-0.276
12:12:02.882 07/10/1995,0.119,-0.276
12:12:02.884 07/10/1995,0.111,-0.276
12:12:02.886 07/10/1995,0.104,-0.276
12:12:02.888 07/10/1995,0.109,-0.282
12:12:02.890 07/10/1995,0.113,-0.282
12:12:02.892 07/10/1995,0.125,-0.282
12:12:02.894 07/10/1995,0.136,-0.282
12:12:02.896 07/10/1995,0.144,-0.287
12:12:02.898 07/10/1995,0.152,-0.287
12:12:02.900 07/10/1995,0.156,-0.287
12:12:02.902 07/10/1995,0.159,-0.287
12:12:02.904 07/10/1995,0.160,-0.296
12:12:02.906 07/10/1995,0.162,-0.296
12:12:02.908 07/10/1995,0.167,-0.296
12:12:02.910 07/10/1995,0.172,-0.296
12:12:02.912 07/10/1995,0.179,-0.301
12:12:02.914 07/10/1995,0.186,-0.301
12:12:02.916 07/10/1995,0.188,-0.301
12:12:02.918 07/10/1995,0.191,-0.301
12:12:02.920 07/10/1995,0.183,-0.306
12:12:02.922 07/10/1995,0.174,-0.306
12:12:02.924 07/10/1995,0.152,-0.306
12:12:02.926 07/10/1995,0.131,-0.306
12:12:02.928 07/10/1995,0.100,-0.316
12:12:02.930 07/10/1995,0.070,-0.316
12:12:02.932 07/10/1995,0.039,-0.316
12:12:02.934 07/10/1995,0.009,-0.316
12:12:02.936 07/10/1995,-0.017,-0.323
12:12:02.938 07/10/1995,-0.042,-0.323
12:12:02.940 07/10/1995,-0.061,-0.323
12:12:02.942 07/10/1995,-0.080,-0.323
12:12:02.944 07/10/1995,-0.094,-0.330
12:12:02.946 07/10/1995,-0.108,-0.330
12:12:02.948 07/10/1995,-0.117,-0.330
12:12:02.950 07/10/1995,-0.125,-0.330
12:12:02.952 07/10/1995,-0.129,-0.334
12:12:02.954 07/10/1995,-0.132,-0.334
12:12:02.956 07/10/1995,-0.131,-0.334
12:12:02.958 07/10/1995,-0.130,-0.334
12:12:02.960 07/10/1995,-0.126,-0.341
12:12:02.962 07/10/1995,-0.122,-0.341
12:12:02.964 07/10/1995,-0.118,-0.341
12:12:02.966 07/10/1995,-0.113,-0.341
12:12:02.968 07/10/1995,-0.111,-0.345
12:12:02.970 07/10/1995,-0.109,-0.345
12:12:02.972 07/10/1995,-0.107,-0.345
12:12:02.974 07/10/1995,-0.106,-0.345
12:12:02.976 07/10/1995,-0.105,-0.352
12:12:02.978 07/10/1995,-0.104,-0.352
12:12:02.980 07/10/1995,-0.103,-0.352
12:12:02.982 07/10/1995,-0.103,-0.352
12:12:02.984 07/10/1995,-0.103,-0.359
12:12:02.986 07/10/1995,-0.104,-0.359
12:12:02.988 07/10/1995,-0.106,-0.359
12:12:02.990 07/10/1995,-0.109,-0.359
12:12:02.992 07/10/1995,-0.111,-0.366
12:12:02.994 07/10/1995,-0.113,-0.366
12:12:02.996 07/10/1995,-0.115,-0.366
12:12:02.998 07/10/1995,-0.117,-0.366
12:12:03.000 07/10/1995,-0.117,-0.371
12:12:03.002 07/10/1995,-0.117,-0.371
12:12:03.004 07/10/1995,-0.113,-0.371
12:12:03.006 07/10/1995,-0.110,-0.371
12:12:03.008 07/10/1995,-0.106,-0.379
12:12:03.010 07/10/1995,-0.102,-0.379
12:12:03.012 07/10/1995,-0.097,-0.379
12:12:03.014 07/10/1995,-0.092,-0.379
12:12:03.016 07/10/1995,-0.087,-0.386
12:12:03.018 07/10/1995,-0.083,-0.386
12:12:03.020 07/10/1995,-0.080,-0.386
12:12:03.022 07/10/1995,-0.078,-0.386
12:12:03.024 07/10/1995,-0.077,-0.393
12:12:03.026 07/10/1995,-0.076,-0.393
12:12:03.028 07/10/1995,-0.075,-0.393
12:12:03.030 07/10/1995,-0.073,-0.393
12:12:03.032 07/10/1995,-0.072,-0.404
12:12:03.034 07/10/1995,-0.071,-0.404
12:12:03.036 07/10/1995,-0.069,-0.404
12:12:03.038 07/10/1995,-0.066,-0.404
12:12:03.040 07/10/1995,-0.062,-0.411
12:12:03.042 07/10/1995,-0.058,-0.411
12:12:03.044 07/10/1995,-0.055,-0.411
12:12:03.046 07/10/1995,-0.051,-0.411
12:12:03.048 07/10/1995,-0.049,-0.423
12:12:03.050 07/10/1995,-0.046,-0.423
12:12:03.052 07/10/1995,-0.045,-0.423
12:12:03.054 07/10/1995,-0.044,-0.423
12:12:03.056 07/10/1995,-0.043,-0.432
12:12:03.058 07/10/1995,-0.042,-0.432
12:12:03.060 07/10/1995,-0.040,-0.432
12:12:03.062 07/10/1995,-0.039,-0.432
12:12:03.064 07/10/1995,-0.038,-0.444
12:12:03.066 07/10/1995,-0.038,-0.444
12:12:03.068 07/10/1995,-0.039,-0.444
12:12:03.070 07/10/1995,-0.040,-0.444
12:12:03.072 07/10/1995,-0.042,-0.456
12:12:03.074 07/10/1995,-0.043,-0.456
12:12:03.076 07/10/1995,-0.044,-0.456
12:12:03.078 07/10/1995,-0.044,-0.456
12:12:03.080 07/10/1995,-0.043,-0.467
12:12:03.082 07/10/1995,-0.042,-0.467
12:12:03.084 07/10/1995,-0.040,-0.467
12:12:03.086 07/10/1995,-0.038,-0.467
12:12:03.088 07/10/1995,-0.035,-0.474
12:12:03.090 07/10/1995,-0.031,-0.474
12:12:03.092 07/10/1995,-0.029,-0.474
12:12:03.094 07/10/1995,-0.026,-0.474
12:12:03.096 07/10/1995,-0.027,-0.483
12:12:03.098 07/10/1995,-0.028,-0.483
12:12:03.100 07/10/1995,-0.034,-0.483
12:12:03.102 07/10/1995,-0.040,-0.483
12:12:03.104 07/10/1995,-0.049,-0.490
12:12:03.106 07/10/1995,-0.058,-0.490
12:12:03.108 07/10/1995,-0.069,-0.490
12:12:03.110 07/10/1995,-0.079,-0.490
12:12:03.112 07/10/1995,-0.091,-0.488
12:12:03.114 07/10/1995,-0.103,-0.488
12:12:03.116 07/10/1995,-0.113,-0.488
12:12:03.118 07/10/1995,-0.124,-0.488
12:12:03.120 07/10/1995,-0.133,-0.481
12:12:03.122 07/10/1995,-0.143,-0.481
12:12:03.124 07/10/1995,-0.150,-0.481
12:12:03.126 07/10/1995,-0.158,-0.481
12:12:03.128 07/10/1995,-0.164,-0.463
12:12:03.130 07/10/1995,-0.171,-0.463
12:12:03.132 07/10/1995,-0.177,-0.463
12:12:03.134 07/10/1995,-0.184,-0.463
12:12:03.136 07/10/1995,-0.190,-0.432
12:12:03.138 07/10/1995,-0.195,-0.432
12:12:03.140 07/10/1995,-0.199,-0.432
12:12:03.142 07/10/1995,-0.202,-0.432
12:12:03.144 07/10/1995,-0.202,-0.383
12:12:03.146 07/10/1995,-0.203,-0.383
12:12:03.148 07/10/1995,-0.201,-0.383
12:12:03.150 07/10/1995,-0.200,-0.383
12:12:03.152 07/10/1995,-0.196,-0.318
12:12:03.154 07/10/1995,-0.192,-0.318
12:12:03.156 07/10/1995,-0.187,-0.318
12:12:03.158 07/10/1995,-0.181,-0.318
12:12:03.160 07/10/1995,-0.175,-0.238
12:12:03.162 07/10/1995,-0.170,-0.238
12:12:03.164 07/10/1995,-0.164,-0.238
12:12:03.166 07/10/1995,-0.158,-0.238
12:12:03.168 07/10/1995,-0.151,-0.153
12:12:03.170 07/10/1995,-0.144,-0.153
12:12:03.172 07/10/1995,-0.136,-0.153
12:12:03.174 07/10/1995,-0.127,-0.153
12:12:03.176 07/10/1995,-0.120,-0.042
12:12:03.178 07/10/1995,-0.112,-0.042
12:12:03.180 07/10/1995,-0.107,-0.042
12:12:03.182 07/10/1995,-0.102,-0.042
12:12:03.184 07/10/1995,-0.098,0.074
12:12:03.186 07/10/1995,-0.094,0.074
12:12:03.188 07/10/1995,-0.092,0.074
12:12:03.190 07/10/1995,-0.091,0.074
12:12:03.192 07/10/1995,-0.090,0.189
12:12:03.194 07/10/1995,-0.090,0.189
12:12:03.196 07/10/1995,-0.088,0.189
12:12:03.198 07/10/1995,-0.086,0.189
12:12:03.200 07/10/1995,-0.084,0.292
12:12:03.202 07/10/1995,-0.082,0.292
12:12:03.204 07/10/1995,-0.078,0.292
12:12:03.206 07/10/1995,-0.075,0.292
12:12:03.208 07/10/1995,-0.072,0.389
12:12:03.210 07/10/1995,-0.069,0.389
12:12:03.212 07/10/1995,-0.066,0.389
12:12:03.214 07/10/1995,-0.063,0.389
12:12:03.216 07/10/1995,-0.058,0.471
12:12:03.218 07/10/1995,-0.053,0.471
12:12:03.220 07/10/1995,-0.048,0.471
12:12:03.222 07/10/1995,-0.042,0.471
12:12:03.224 07/10/1995,-0.038,0.530
12:12:03.226 07/10/1995,-0.035,0.530
12:12:03.228 07/10/1995,-0.034,0.530
12:12:03.230 07/10/1995,-0.033,0.530
12:12:03.232 07/10/1995,-0.035,0.575
12:12:03.234 07/10/1995,-0.036,0.575
12:12:03.236 07/10/1995,-0.039,0.575
12:12:03.238 07/10/1995,-0.042,0.575
12:12:03.240 07/10/1995,-0.045,0.600
12:12:03.242 07/10/1995,-0.048,0.600
12:12:03.244 07/10/1995,-0.050,0.600
12:12:03.246 07/10/1995,-0.052,0.600
12:12:03.248 07/10/1995,-0.051,0.612
12:12:03.250 07/10/1995,-0.051,0.612
12:12:03.252 07/10/1995,-0.048,0.612
12:12:03.254 07/10/1995,-0.045,0.612
12:12:03.256 07/10/1995,-0.042,0.607
12:12:03.258 07/10/1995,-0.038,0.607
12:12:03.260 07/10/1995,-0.031,0.607
12:12:03.262 07/10/1995,-0.025,0.607
12:12:03.264 07/10/1995,-0.015,0.590
12:12:03.266 07/10/1995,-0.005,0.590
12:12:03.268 07/10/1995,0.006,0.590
12:12:03.270 07/10/1995,0.018,0.590
12:12:03.272 07/10/1995,0.029,0.565
12:12:03.274 07/10/1995,0.040,0.565
12:12:03.276 07/10/1995,0.045,0.565
12:12:03.278 07/10/1995,0.051,0.565
12:12:03.280 07/10/1995,0.051,0.535
12:12:03.282 07/10/1995,0.052,0.535
12:12:03.284 07/10/1995,0.050,0.535
12:12:03.286 07/10/1995,0.048,0.535
12:12:03.288 07/10/1995,0.049,0.498
12:12:03.290 07/10/1995,0.050,0.498
12:12:03.292 07/10/1995,0.057,0.498
12:12:03.294 07/10/1995,0.064,0.498
12:12:03.296 07/10/1995,0.073,0.456
12:12:03.298 07/10/1995,0.083,0.456
12:12:03.300 07/10/1995,0.089,0.456
12:12:03.302 07/10/1995,0.094,0.456
12:12:03.304 07/10/1995,0.091,0.411
12:12:03.306 07/10/1995,0.087,0.411
12:12:03.308 07/10/1995,0.078,0.411
12:12:03.310 07/10/1995,0.068,0.411
12:12:03.312 07/10/1995,0.059,0.362
12:12:03.314 07/10/1995,0.050,0.362
12:12:03.316 07/10/1995,0.045,0.362
12:12:03.318 07/10/1995,0.040,0.362
12:12:03.320 07/10/1995,0.037,0.315
12:12:03.322 07/10/1995,0.035,0.315
12:12:03.324 07/10/1995,0.031,0.315
12:12:03.326 07/10/1995,0.027,0.315
12:12:03.328 07/10/1995,0.021,0.265
12:12:03.330 07/10/1995,0.014,0.265
12:12:03.332 07/10/1995,0.003,0.265
12:12:03.334 07/10/1995,-0.009,0.265
12:12:03.336 07/10/1995,-0.023,0.213
12:12:03.338 07/10/1995,-0.038,0.213
12:12:03.340 07/10/1995,-0.055,0.213
12:12:03.342 07/10/1995,-0.071,0.213
12:12:03.344 07/10/1995,-0.087,0.161
12:12:03.346 07/10/1995,-0.104,0.161
12:12:03.348 07/10/1995,-0.116,0.161
12:12:03.350 07/10/1995,-0.129,0.161
12:12:03.352 07/10/1995,-0.136,0.112
12:12:03.354 07/10/1995,-0.144,0.112
12:12:03.356 07/10/1995,-0.148,0.112
12:12:03.358 07/10/1995,-0.152,0.112
12:12:03.360 07/10/1995,-0.153,0.059
12:12:03.362 07/10/1995,-0.154,0.059
12:12:03.364 07/10/1995,-0.156,0.059
12:12:03.366 07/10/1995,-0.157,0.059
12:12:03.368 07/10/1995,-0.159,0.010
12:12:03.370 07/10/1995,-0.161,0.010
12:12:03.372 07/10/1995,-0.163,0.010
12:12:03.374 07/10/1995,-0.164,0.010
12:12:03.376 07/10/1995,-0.165,-0.035
12:12:03.378 07/10/1995,-0.166,-0.035
12:12:03.380 07/10/1995,-0.166,-0.035
12:12:03.382 07/10/1995,-0.166,-0.035
12:12:03.384 07/10/1995,-0.167,-0.074
12:12:03.386 07/10/1995,-0.167,-0.074
12:12:03.388 07/10/1995,-0.169,-0.074
12:12:03.390 07/10/1995,-0.171,-0.074
12:12:03.392 07/10/1995,-0.174,-0.108
12:12:03.394 07/10/1995,-0.177,-0.108
12:12:03.396 07/10/1995,-0.181,-0.108
12:12:03.398 07/10/1995,-0.185,-0.108
12:12:03.400 07/10/1995,-0.186,-0.143
12:12:03.402 07/10/1995,-0.187,-0.143
12:12:03.404 07/10/1995,-0.186,-0.143
12:12:03.406 07/10/1995,-0.185,-0.143
12:12:03.408 07/10/1995,-0.181,-0.171
12:12:03.410 07/10/1995,-0.178,-0.171
12:12:03.412 07/10/1995,-0.175,-0.171
12:12:03.414 07/10/1995,-0.172,-0.171
12:12:03.416 07/10/1995,-0.168,-0.193
12:12:03.418 07/10/1995,-0.165,-0.193
12:12:03.420 07/10/1995,-0.163,-0.193
12:12:03.422 07/10/1995,-0.161,-0.193
12:12:03.424 07/10/1995,-0.160,-0.205
12:12:03.426 07/10/1995,-0.159,-0.205
12:12:03.428 07/10/1995,-0.159,-0.205
12:12:03.430 07/10/1995,-0.159,-0.205
12:12:03.432 07/10/1995,-0.161,-0.217
12:12:03.434 07/10/1995,-0.163,-0.217
12:12:03.436 07/10/1995,-0.165,-0.217
12:12:03.438 07/10/1995,-0.166,-0.217
12:12:03.440 07/10/1995,-0.164,-0.225
12:12:03.442 07/10/1995,-0.162,-0.225
12:12:03.444 07/10/1995,-0.151,-0.225
12:12:03.446 07/10/1995,-0.139,-0.225
12:12:03.448 07/10/1995,-0.115,-0.230
12:12:03.450 07/10/1995,-0.091,-0.230
12:12:03.452 07/10/1995,-0.049,-0.230
12:12:03.454 07/10/1995,-0.008,-0.230
12:12:03.456 07/10/1995,0.053,-0.233
12:12:03.458 07/10/1995,0.113,-0.233
12:12:03.460 07/10/1995,0.186,-0.233
12:12:03.462 07/10/1995,0.258,-0.233
12:12:03.464 07/10/1995,0.328,-0.230
12:12:03.466 07/10/1995,0.397,-0.230
12:12:03.468 07/10/1995,0.444,-0.230
12:12:03.470 07/10/1995,0.491,-0.230
12:12:03.472 07/10/1995,0.502,-0.233
12:12:03.474 07/10/1995,0.513,-0.233
12:12:03.476 07/10/1995,0.485,-0.233
12:12:03.478 07/10/1995,0.458,-0.233
12:12:03.480 07/10/1995,0.407,-0.233
12:12:03.482 07/10/1995,0.355,-0.233
12:12:03.484 07/10/1995,0.301,-0.233
12:12:03.486 07/10/1995,0.246,-0.233
12:12:03.488 07/10/1995,0.205,-0.235
12:12:03.490 07/10/1995,0.164,-0.235
12:12:03.492 07/10/1995,0.145,-0.235
12:12:03.494 07/10/1995,0.125,-0.235
12:12:03.496 07/10/1995,0.125,-0.235
12:12:03.498 07/10/1995,0.124,-0.235
12:12:03.500 07/10/1995,0.137,-0.235
12:12:03.502 07/10/1995,0.150,-0.235
12:12:03.504 07/10/1995,0.166,-0.240
12:12:03.506 07/10/1995,0.183,-0.240
12:12:03.508 07/10/1995,0.195,-0.240
12:12:03.510 07/10/1995,0.207,-0.240
12:12:03.512 07/10/1995,0.211,-0.245
12:12:03.514 07/10/1995,0.214,-0.245
12:12:03.516 07/10/1995,0.211,-0.245
12:12:03.518 07/10/1995,0.207,-0.245
12:12:03.520 07/10/1995,0.202,-0.250
12:12:03.522 07/10/1995,0.198,-0.250
12:12:03.524 07/10/1995,0.194,-0.250
12:12:03.526 07/10/1995,0.191,-0.250
12:12:03.528 07/10/1995,0.188,-0.258
12:12:03.530 07/10/1995,0.185,-0.258
12:12:03.532 07/10/1995,0.174,-0.258
12:12:03.534 07/10/1995,0.164,-0.258
12:12:03.536 07/10/1995,0.143,-0.263
12:12:03.538 07/10/1995,0.121,-0.263
12:12:03.540 07/10/1995,0.091,-0.263
12:12:03.542 07/10/1995,0.060,-0.263
12:12:03.544 07/10/1995,0.030,-0.275
12:12:03.546 07/10/1995,0.000,-0.275
12:12:03.548 07/10/1995,-0.024,-0.275
12:12:03.550 07/10/1995,-0.049,-0.275
12:12:03.552 07/10/1995,-0.065,-0.280
12:12:03.554 07/10/1995,-0.082,-0.280
12:12:03.556 07/10/1995,-0.092,-0.280
12:12:03.558 07/10/1995,-0.102,-0.280
12:12:03.560 07/10/1995,-0.104,-0.287
12:12:03.562 07/10/1995,-0.107,-0.287
12:12:03.564 07/10/1995,-0.105,-0.287
12:12:03.566 07/10/1995,-0.103,-0.287
12:12:03.568 07/10/1995,-0.098,-0.294
12:12:03.570 07/10/1995,-0.094,-0.294
12:12:03.572 07/10/1995,-0.090,-0.294
12:12:03.574 07/10/1995,-0.085,-0.294
12:12:03.576 07/10/1995,-0.082,-0.302
12:12:03.578 07/10/1995,-0.079,-0.302
12:12:03.580 07/10/1995,-0.077,-0.302
12:12:03.582 07/10/1995,-0.076,-0.302
12:12:03.584 07/10/1995,-0.076,-0.312
12:12:03.586 07/10/1995,-0.076,-0.312
12:12:03.588 07/10/1995,-0.077,-0.312
12:12:03.590 07/10/1995,-0.079,-0.312
12:12:03.592 07/10/1995,-0.079,-0.320
12:12:03.594 07/10/1995,-0.080,-0.320
12:12:03.596 07/10/1995,-0.079,-0.320
12:12:03.598 07/10/1995,-0.078,-0.320
12:12:03.600 07/10/1995,-0.076,-0.327
12:12:03.602 07/10/1995,-0.075,-0.327
12:12:03.604 07/10/1995,-0.072,-0.327
12:12:03.606 07/10/1995,-0.070,-0.327
12:12:03.608 07/10/1995,-0.069,-0.334
12:12:03.610 07/10/1995,-0.067,-0.334
12:12:03.612 07/10/1995,-0.065,-0.334
12:12:03.614 07/10/1995,-0.064,-0.334
12:12:03.616 07/10/1995,-0.063,-0.342
12:12:03.618 07/10/1995,-0.063,-0.342
12:12:03.620 07/10/1995,-0.063,-0.342
12:12:03.622 07/10/1995,-0.063,-0.342
12:12:03.624 07/10/1995,-0.061,-0.346
12:12:03.626 07/10/1995,-0.059,-0.346
12:12:03.628 07/10/1995,-0.057,-0.346
12:12:03.630 07/10/1995,-0.055,-0.346
12:12:03.632 07/10/1995,-0.052,-0.356
12:12:03.634 07/10/1995,-0.050,-0.356
12:12:03.636 07/10/1995,-0.046,-0.356
12:12:03.638 07/10/1995,-0.043,-0.356
12:12:03.640 07/10/1995,-0.042,-0.364
12:12:03.642 07/10/1995,-0.040,-0.364
12:12:03.644 07/10/1995,-0.038,-0.364
12:12:03.646 07/10/1995,-0.037,-0.364
12:12:03.648 07/10/1995,-0.035,-0.373
12:12:03.650 07/10/1995,-0.033,-0.373
12:12:03.652 07/10/1995,-0.031,-0.373
12:12:03.654 07/10/1995,-0.029,-0.373
12:12:03.656 07/10/1995,-0.026,-0.384
12:12:03.658 07/10/1995,-0.024,-0.384
12:12:03.660 07/10/1995,-0.021,-0.384
12:12:03.662 07/10/1995,-0.018,-0.384
12:12:03.664 07/10/1995,-0.015,-0.396
12:12:03.666 07/10/1995,-0.012,-0.396
12:12:03.668 07/10/1995,-0.010,-0.396
12:12:03.670 07/10/1995,-0.008,-0.396
12:12:03.672 07/10/1995,-0.006,-0.408
12:12:03.674 07/10/1995,-0.005,-0.408
12:12:03.676 07/10/1995,-0.004,-0.408
12:12:03.678 07/10/1995,-0.002,-0.408
12:12:03.680 07/10/1995,-0.001,-0.424
12:12:03.682 07/10/1995,0.001,-0.424
12:12:03.684 07/10/1995,0.003,-0.424
12:12:03.686 07/10/1995,0.004,-0.424
12:12:03.688 07/10/1995,0.005,-0.434
12:12:03.690 07/10/1995,0.006,-0.434
12:12:03.692 07/10/1995,0.007,-0.434
12:12:03.694 07/10/1995,0.008,-0.434
12:12:03.696 07/10/1995,0.005,-0.450
12:12:03.698 07/10/1995,0.002,-0.450
12:12:03.700 07/10/1995,-0.001,-0.450
12:12:03.702 07/10/1995,-0.004,-0.450
12:12:03.704 07/10/1995,-0.007,-0.457
12:12:03.706 07/10/1995,-0.010,-0.457
12:12:03.708 07/10/1995,-0.012,-0.457
12:12:03.710 07/10/1995,-0.015,-0.457
12:12:03.712 07/10/1995,-0.021,-0.462
12:12:03.714 07/10/1995,-0.026,-0.462
12:12:03.716 07/10/1995,-0.033,-0.462
12:12:03.718 07/10/1995,-0.040,-0.462
12:12:03.720 07/10/1995,-0.048,-0.465
12:12:03.722 07/10/1995,-0.055,-0.465
12:12:03.724 07/10/1995,-0.064,-0.465
12:12:03.726 07/10/1995,-0.072,-0.465
12:12:03.728 07/10/1995,-0.082,-0.462
12:12:03.730 07/10/1995,-0.092,-0.462
12:12:03.732 07/10/1995,-0.101,-0.462
12:12:03.734 07/10/1995,-0.110,-0.462
12:12:03.736 07/10/1995,-0.118,-0.445
12:12:03.738 07/10/1995,-0.126,-0.445
12:12:03.740 07/10/1995,-0.133,-0.445
12:12:03.742 07/10/1995,-0.140,-0.445
12:12:03.744 07/10/1995,-0.145,-0.419
12:12:03.746 07/10/1995,-0.149,-0.419
12:12:03.748 07/10/1995,-0.152,-0.419
12:12:03.750 07/10/1995,-0.156,-0.419
12:12:03.752 07/10/1995,-0.157,-0.379
12:12:03.754 07/10/1995,-0.159,-0.379
12:12:03.756 07/10/1995,-0.158,-0.379
12:12:03.758 07/10/1995,-0.158,-0.379
12:12:03.760 07/10/1995,-0.156,-0.318
12:12:03.762 07/10/1995,-0.153,-0.318
12:12:03.764 07/10/1995,-0.149,-0.318
12:12:03.766 07/10/1995,-0.145,-0.318
12:12:03.768 07/10/1995,-0.140,-0.246
12:12:03.770 07/10/1995,-0.135,-0.246
12:12:03.772 07/10/1995,-0.127,-0.246
12:12:03.774 07/10/1995,-0.120,-0.246
12:12:03.776 07/10/1995,-0.111,-0.155
12:12:03.778 07/10/1995,-0.103,-0.155
12:12:03.780 07/10/1995,-0.093,-0.155
12:12:03.782 07/10/1995,-0.083,-0.155
12:12:03.784 07/10/1995,-0.073,-0.056
12:12:03.786 07/10/1995,-0.063,-0.056
12:12:03.788 07/10/1995,-0.052,-0.056
12:12:03.790 07/10/1995,-0.041,-0.056
12:12:03.792 07/10/1995,-0.032,0.053
12:12:03.794 07/10/1995,-0.024,0.053
12:12:03.796 07/10/1995,-0.017,0.053
12:12:03.798 07/10/1995,-0.010,0.053
12:12:03.800 07/10/1995,-0.004,0.163
12:12:03.802 07/10/1995,0.002,0.163
12:12:03.804 07/10/1995,0.008,0.163
12:12:03.806 07/10/1995,0.013,0.163
12:12:03.808 07/10/1995,0.017,0.264
12:12:03.810 07/10/1995,0.022,0.264
12:12:03.812 07/10/1995,0.025,0.264
12:12:03.814 07/10/1995,0.029,0.264
12:12:03.816 07/10/1995,0.033,0.355
12:12:03.818 07/10/1995,0.038,0.355
12:12:03.820 07/10/1995,0.043,0.355
12:12:03.822 07/10/1995,0.048,0.355
12:12:03.824 07/10/1995,0.051,0.436
12:12:03.826 07/10/1995,0.054,0.436
12:12:03.828 07/10/1995,0.056,0.436
12:12:03.830 07/10/1995,0.058,0.436
12:12:03.832 07/10/1995,0.059,0.500
12:12:03.834 07/10/1995,0.060,0.500
12:12:03.836 07/10/1995,0.062,0.500
12:12:03.838 07/10/1995,0.064,0.500
12:12:03.840 07/10/1995,0.065,0.546
12:12:03.842 07/10/1995,0.067,0.546
12:12:03.844 07/10/1995,0.067,0.546
12:12:03.846 07/10/1995,0.067,0.546
12:12:03.848 07/10/1995,0.067,0.571
12:12:03.850 07/10/1995,0.067,0.571
12:12:03.852 07/10/1995,0.067,0.571
12:12:03.854 07/10/1995,0.067,0.571
12:12:03.856 07/10/1995,0.068,0.584
12:12:03.858 07/10/1995,0.069,0.584
12:12:03.860 07/10/1995,0.072,0.584
12:12:03.862 07/10/1995,0.076,0.584
12:12:03.864 07/10/1995,0.080,0.582
12:12:03.866 07/10/1995,0.084,0.582
12:12:03.868 07/10/1995,0.090,0.582
12:12:03.870 07/10/1995,0.095,0.582
12:12:03.872 07/10/1995,0.103,0.564
12:12:03.874 07/10/1995,0.110,0.564
12:12:03.876 07/10/1995,0.120,0.564
12:12:03.878 07/10/1995,0.131,0.564
12:12:03.880 07/10/1995,0.140,0.535
12:12:03.882 07/10/1995,0.150,0.535
12:12:03.884 07/10/1995,0.159,0.535
12:12:03.886 07/10/1995,0.167,0.535
12:12:03.888 07/10/1995,0.174,0.500
12:12:03.890 07/10/1995,0.181,0.500
12:12:03.892 07/10/1995,0.187,0.500
12:12:03.894 07/10/1995,0.192,0.500
12:12:03.896 07/10/1995,0.199,0.462
12:12:03.898 07/10/1995,0.205,0.462
12:12:03.900 07/10/1995,0.213,0.462
12:12:03.902 07/10/1995,0.221,0.462
12:12:03.904 07/10/1995,0.229,0.419
12:12:03.906 07/10/1995,0.238,0.419
12:12:03.908 07/10/1995,0.240,0.419
12:12:03.910 07/10/1995,0.243,0.419
12:12:03.912 07/10/1995,0.238,0.373
12:12:03.914 07/10/1995,0.233,0.373
12:12:03.916 07/10/1995,0.220,0.373
12:12:03.918 07/10/1995,0.207,0.373
12:12:03.920 07/10/1995,0.192,0.325
12:12:03.922 07/10/1995,0.177,0.325
12:12:03.924 07/10/1995,0.166,0.325
12:12:03.926 07/10/1995,0.156,0.325
12:12:03.928 07/10/1995,0.151,0.277
12:12:03.930 07/10/1995,0.146,0.277
12:12:03.932 07/10/1995,0.144,0.277
12:12:03.934 07/10/1995,0.141,0.277
12:12:03.936 07/10/1995,0.138,0.224
12:12:03.938 07/10/1995,0.134,0.224
12:12:03.940 07/10/1995,0.126,0.224
12:12:03.942 07/10/1995,0.118,0.224
12:12:03.944 07/10/1995,0.105,0.177
12:12:03.946 07/10/1995,0.092,0.177
12:12:03.948 07/10/1995,0.076,0.177
12:12:03.950 07/10/1995,0.060,0.177
12:12:03.952 07/10/1995,0.045,0.130
12:12:03.954 07/10/1995,0.030,0.130
12:12:03.956 07/10/1995,0.018,0.130
12:12:03.958 07/10/1995,0.005,0.130
12:12:03.960 07/10/1995,-0.005,0.086
12:12:03.962 07/10/1995,-0.015,0.086
12:12:03.964 07/10/1995,-0.023,0.086
12:12:03.966 07/10/1995,-0.030,0.086
12:12:03.968 07/10/1995,-0.035,0.043
12:12:03.970 07/10/1995,-0.039,0.043
12:12:03.972 07/10/1995,-0.042,0.043
12:12:03.974 07/10/1995,-0.044,0.043
12:12:03.976 07/10/1995,-0.046,0.003
12:12:03.978 07/10/1995,-0.049,0.003
12:12:03.980 07/10/1995,-0.050,0.003
12:12:03.982 07/10/1995,-0.052,0.003
12:12:03.984 07/10/1995,-0.052,-0.033
12:12:03.986 07/10/1995,-0.053,-0.033
12:12:03.988 07/10/1995,-0.055,-0.033
12:12:03.990 07/10/1995,-0.056,-0.033
12:12:03.992 07/10/1995,-0.058,-0.069
12:12:03.994 07/10/1995,-0.060,-0.069
12:12:03.996 07/10/1995,-0.062,-0.069
12:12:03.998 07/10/1995,-0.064,-0.069
12:12:04.000 07/10/1995,-0.064,-0.097
12:12:04.002 07/10/1995,-0.064,-0.097
12:12:04.004 07/10/1995,-0.064,-0.097
12:12:04.006 07/10/1995,-0.064,-0.097
12:12:04.008 07/10/1995,-0.063,-0.124
12:12:04.010 07/10/1995,-0.063,-0.124
12:12:04.012 07/10/1995,-0.062,-0.124
12:12:04.014 07/10/1995,-0.060,-0.124
12:12:04.016 07/10/1995,-0.059,-0.145
12:12:04.018 07/10/1995,-0.058,-0.145
12:12:04.020 07/10/1995,-0.057,-0.145
12:12:04.022 07/10/1995,-0.056,-0.145
12:12:04.024 07/10/1995,-0.055,-0.160
12:12:04.026 07/10/1995,-0.054,-0.160
12:12:04.028 07/10/1995,-0.052,-0.160
12:12:04.030 07/10/1995,-0.051,-0.160
12:12:04.032 07/10/1995,-0.049,-0.173
12:12:04.034 07/10/1995,-0.046,-0.173
12:12:04.036 07/10/1995,-0.045,-0.173
12:12:04.038 07/10/1995,-0.044,-0.173
12:12:04.040 07/10/1995,-0.043,-0.180
12:12:04.042 07/10/1995,-0.041,-0.180
12:12:04.044 07/10/1995,-0.039,-0.180
12:12:04.046 07/10/1995,-0.037,-0.180
12:12:04.048 07/10/1995,-0.035,-0.188
12:12:04.050 07/10/1995,-0.033,-0.188
12:12:04.052 07/10/1995,-0.029,-0.188
12:12:04.054 07/10/1995,-0.024,-0.188
12:12:04.056 07/10/1995,-0.009,-0.191
12:12:04.058 07/10/1995,0.005,-0.191
12:12:04.060 07/10/1995,0.039,-0.191
12:12:04.062 07/10/1995,0.073,-0.191
12:12:04.064 07/10/1995,0.134,-0.196
12:12:04.066 07/10/1995,0.195,-0.196
12:12:04.068 07/10/1995,0.281,-0.196
12:12:04.070 07/10/1995,0.367,-0.196
12:12:04.072 07/10/1995,0.461,-0.196
12:12:04.074 07/10/1995,0.554,-0.196
12:12:04.076 07/10/1995,0.632,-0.196
12:12:04.078 07/10/1995,0.710,-0.196
12:12:04.080 07/10/1995,0.747,-0.196
12:12:04.082 07/10/1995,0.784,-0.196
12:12:04.084 07/10/1995,0.772,-0.196
12:12:04.086 07/10/1995,0.760,-0.196
12:12:04.088 07/10/1995,0.707,-0.201
12:12:04.090 07/10/1995,0.654,-0.201
12:12:04.092 07/10/1995,0.583,-0.201
12:12:04.094 07/10/1995,0.511,-0.201
12:12:04.096 07/10/1995,0.444,-0.203
12:12:04.098 07/10/1995,0.377,-0.203
12:12:04.100 07/10/1995,0.329,-0.203
12:12:04.102 07/10/1995,0.282,-0.203
12:12:04.104 07/10/1995,0.259,-0.203
12:12:04.106 07/10/1995,0.237,-0.203
12:12:04.108 07/10/1995,0.235,-0.203
12:12:04.110 07/10/1995,0.234,-0.203
12:12:04.112 07/10/1995,0.245,-0.211
12:12:04.114 07/10/1995,0.256,-0.211
12:12:04.116 07/10/1995,0.267,-0.211
12:12:04.118 07/10/1995,0.279,-0.211
12:12:04.120 07/10/1995,0.287,-0.216
12:12:04.122 07/10/1995,0.295,-0.216
12:12:04.124 07/10/1995,0.299,-0.216
12:12:04.126 07/10/1995,0.302,-0.216
12:12:04.128 07/10/1995,0.307,-0.224
12:12:04.130 07/10/1995,0.311,-0.224
12:12:04.132 07/10/1995,0.318,-0.224
12:12:04.134 07/10/1995,0.325,-0.224
12:12:04.136 07/10/1995,0.329,-0.231
12:12:04.138 07/10/1995,0.334,-0.231
12:12:04.140 07/10/1995,0.327,-0.231
12:12:04.142 07/10/1995,0.320,-0.231
12:12:04.144 07/10/1995,0.299,-0.236
12:12:04.146 07/10/1995,0.278,-0.236
12:12:04.148 07/10/1995,0.246,-0.236
12:12:04.150 07/10/1995,0.215,-0.236
12:12:04.152 07/10/1995,0.180,-0.246
12:12:04.154 07/10/1995,0.146,-0.246
12:12:04.156 07/10/1995,0.117,-0.246
12:12:04.158 07/10/1995,0.087,-0.246
12:12:04.160 07/10/1995,0.067,-0.254
12:12:04.162 07/10/1995,0.048,-0.254
12:12:04.164 07/10/1995,0.034,-0.254
12:12:04.166 07/10/1995,0.021,-0.254
12:12:04.168 07/10/1995,0.012,-0.264
12:12:04.170 07/10/1995,0.004,-0.264
12:12:04.172 07/10/1995,-0.001,-0.264
12:12:04.174 07/10/1995,-0.006,-0.264
12:12:04.176 07/10/1995,-0.009,-0.272
12:12:04.178 07/10/1995,-0.012,-0.272
12:12:04.180 07/10/1995,-0.012,-0.272
12:12:04.182 07/10/1995,-0.013,-0.272
12:12:04.184 07/10/1995,-0.012,-0.280
12:12:04.186 07/10/1995,-0.012,-0.280
12:12:04.188 07/10/1995,-0.010,-0.280
12:12:04.190 07/10/1995,-0.009,-0.280
12:12:04.192 07/10/1995,-0.008,-0.315
12:12:04.194 07/10/1995,-0.008,-0.315
12:12:04.196 07/10/1995,-0.008,-0.315
12:12:04.198 07/10/1995,-0.008,-0.315
12:12:04.200 07/10/1995,-0.008,-0.325
12:12:04.202 07/10/1995,-0.009,-0.325
12:12:04.204 07/10/1995,-0.009,-0.325
12:12:04.206 07/10/1995,-0.009,-0.325
12:12:04.208 07/10/1995,-0.008,-0.332
12:12:04.210 07/10/1995,-0.008,-0.332
12:12:04.212 07/10/1995,-0.007,-0.332
12:12:04.214 07/10/1995,-0.006,-0.332
12:12:04.216 07/10/1995,-0.005,-0.340
12:12:04.218 07/10/1995,-0.004,-0.340
12:12:04.220 07/10/1995,-0.003,-0.340
12:12:04.222 07/10/1995,-0.001,-0.340
12:12:04.224 07/10/1995,0.000,-0.349
12:12:04.226 07/10/1995,0.001,-0.349
12:12:04.228 07/10/1995,0.002,-0.349
12:12:04.230 07/10/1995,0.003,-0.349
12:12:04.232 07/10/1995,0.004,-0.359
12:12:04.234 07/10/1995,0.005,-0.359
12:12:04.236 07/10/1995,0.008,-0.359
12:12:04.238 07/10/1995,0.011,-0.359
12:12:04.240 07/10/1995,0.012,-0.364
12:12:04.242 07/10/1995,0.013,-0.364
12:12:04.244 07/10/1995,0.015,-0.364
12:12:04.246 07/10/1995,0.016,-0.364
12:12:04.248 07/10/1995,0.018,-0.378
12:12:04.250 07/10/1995,0.021,-0.378
12:12:04.252 07/10/1995,0.023,-0.378
12:12:04.254 07/10/1995,0.026,-0.378
12:12:04.256 07/10/1995,0.029,-0.383
12:12:04.258 07/10/1995,0.031,-0.383
12:12:04.260 07/10/1995,0.035,-0.383
12:12:04.262 07/10/1995,0.039,-0.383
12:12:04.264 07/10/1995,0.043,-0.395
12:12:04.266 07/10/1995,0.048,-0.395
12:12:04.268 07/10/1995,0.052,-0.395
12:12:04.270 07/10/1995,0.056,-0.395
12:12:04.272 07/10/1995,0.059,-0.400
12:12:04.274 07/10/1995,0.062,-0.400
12:12:04.276 07/10/1995,0.064,-0.400
12:12:04.278 07/10/1995,0.067,-0.400
12:12:04.280 07/10/1995,0.070,-0.410
12:12:04.282 07/10/1995,0.072,-0.410
12:12:04.284 07/10/1995,0.076,-0.410
12:12:04.286 07/10/1995,0.079,-0.410
12:12:04.288 07/10/1995,0.082,-0.417
12:12:04.290 07/10/1995,0.085,-0.417
12:12:04.292 07/10/1995,0.087,-0.417
12:12:04.294 07/10/1995,0.090,-0.417
12:12:04.296 07/10/1995,0.091,-0.427
12:12:04.298 07/10/1995,0.092,-0.427
12:12:04.300 07/10/1995,0.090,-0.427
12:12:04.302 07/10/1995,0.089,-0.427
12:12:04.304 07/10/1995,0.085,-0.432
12:12:04.306 07/10/1995,0.082,-0.432
12:12:04.308 07/10/1995,0.078,-0.432
12:12:04.310 07/10/1995,0.075,-0.432
12:12:04.312 07/10/1995,0.070,-0.438
12:12:04.314 07/10/1995,0.066,-0.438
12:12:04.316 07/10/1995,0.061,-0.438
12:12:04.318 07/10/1995,0.056,-0.438
12:12:04.320 07/10/1995,0.050,-0.440
12:12:04.322 07/10/1995,0.044,-0.440
12:12:04.324 07/10/1995,0.038,-0.440
12:12:04.326 07/10/1995,0.032,-0.440
12:12:04.328 07/10/1995,0.026,-0.440
12:12:04.330 07/10/1995,0.019,-0.440
12:12:04.332 07/10/1995,0.011,-0.440
12:12:04.334 07/10/1995,0.002,-0.440
12:12:04.336 07/10/1995,-0.009,-0.432
12:12:04.338 07/10/1995,-0.019,-0.432
12:12:04.340 07/10/1995,-0.031,-0.432
12:12:04.342 07/10/1995,-0.042,-0.432
12:12:04.344 07/10/1995,-0.053,-0.412
12:12:04.346 07/10/1995,-0.064,-0.412
12:12:04.348 07/10/1995,-0.074,-0.412
12:12:04.350 07/10/1995,-0.084,-0.412
12:12:04.352 07/10/1995,-0.093,-0.380
12:12:04.354 07/10/1995,-0.102,-0.380
12:12:04.356 07/10/1995,-0.108,-0.380
12:12:04.358 07/10/1995,-0.114,-0.380
12:12:04.360 07/10/1995,-0.119,-0.335
12:12:04.362 07/10/1995,-0.124,-0.335
12:12:04.364 07/10/1995,-0.128,-0.335
12:12:04.366 07/10/1995,-0.132,-0.335
12:12:04.368 07/10/1995,-0.133,-0.267
12:12:04.370 07/10/1995,-0.134,-0.267
12:12:04.372 07/10/1995,-0.132,-0.267
12:12:04.374 07/10/1995,-0.131,-0.267
12:12:04.376 07/10/1995,-0.127,-0.183
12:12:04.378 07/10/1995,-0.124,-0.183
12:12:04.380 07/10/1995,-0.120,-0.183
12:12:04.382 07/10/1995,-0.116,-0.183
12:12:04.384 07/10/1995,-0.110,-0.088
12:12:04.386 07/10/1995,-0.104,-0.088
12:12:04.388 07/10/1995,-0.097,-0.088
12:12:04.390 07/10/1995,-0.090,-0.088
12:12:04.392 07/10/1995,-0.083,0.018
12:12:04.394 07/10/1995,-0.076,0.018
12:12:04.396 07/10/1995,-0.071,0.018
12:12:04.398 07/10/1995,-0.066,0.018
12:12:04.400 07/10/1995,-0.062,0.136
12:12:04.402 07/10/1995,-0.057,0.136
12:12:04.404 07/10/1995,-0.053,0.136
12:12:04.406 07/10/1995,-0.050,0.136
12:12:04.408 07/10/1995,-0.045,0.246
12:12:04.410 07/10/1995,-0.041,0.246
12:12:04.412 07/10/1995,-0.036,0.246
12:12:04.414 07/10/1995,-0.030,0.246
12:12:04.416 07/10/1995,-0.024,0.357
12:12:04.418 07/10/1995,-0.017,0.357
12:12:04.420 07/10/1995,-0.011,0.357
12:12:04.422 07/10/1995,-0.005,0.357
12:12:04.424 07/10/1995,-0.001,0.458
12:12:04.426 07/10/1995,0.004,0.458
12:12:04.428 07/10/1995,0.007,0.458
12:12:04.430 07/10/1995,0.010,0.458
12:12:04.432 07/10/1995,0.011,0.541
12:12:04.434 07/10/1995,0.012,0.541
12:12:04.436 07/10/1995,0.012,0.541
12:12:04.438 07/10/1995,0.012,0.541
12:12:04.440 07/10/1995,0.012,0.612
12:12:04.442 07/10/1995,0.012,0.612
12:12:04.444 07/10/1995,0.012,0.612
12:12:04.446 07/10/1995,0.012,0.612
12:12:04.448 07/10/1995,0.012,0.659
12:12:04.450 07/10/1995,0.012,0.659
12:12:04.452 07/10/1995,0.012,0.659
12:12:04.454 07/10/1995,0.012,0.659
12:12:04.456 07/10/1995,0.012,0.690
12:12:04.458 07/10/1995,0.013,0.690
12:12:04.460 07/10/1995,0.014,0.690
12:12:04.462 07/10/1995,0.015,0.690
12:12:04.464 07/10/1995,0.016,0.710
12:12:04.466 07/10/1995,0.017,0.710
12:12:04.468 07/10/1995,0.018,0.710
12:12:04.470 07/10/1995,0.018,0.710
12:12:04.472 07/10/1995,0.021,0.707
12:12:04.474 07/10/1995,0.023,0.707
12:12:04.476 07/10/1995,0.026,0.707
12:12:04.478 07/10/1995,0.029,0.707
12:12:04.480 07/10/1995,0.036,0.700
12:12:04.482 07/10/1995,0.043,0.700
12:12:04.484 07/10/1995,0.053,0.700
12:12:04.486 07/10/1995,0.063,0.700
12:12:04.488 07/10/1995,0.073,0.682
12:12:04.490 07/10/1995,0.083,0.682
12:12:04.492 07/10/1995,0.092,0.682
12:12:04.494 07/10/1995,0.102,0.682
12:12:04.496 07/10/1995,0.109,0.654
12:12:04.498 07/10/1995,0.117,0.654
12:12:04.500 07/10/1995,0.123,0.654
12:12:04.502 07/10/1995,0.129,0.654
12:12:04.504 07/10/1995,0.133,0.622
12:12:04.506 07/10/1995,0.138,0.622
12:12:04.508 07/10/1995,0.146,0.622
12:12:04.510 07/10/1995,0.153,0.622
12:12:04.512 07/10/1995,0.163,0.586
12:12:04.514 07/10/1995,0.172,0.586
12:12:04.516 07/10/1995,0.176,0.586
12:12:04.518 07/10/1995,0.180,0.586
12:12:04.520 07/10/1995,0.177,0.548
12:12:04.522 07/10/1995,0.173,0.548
12:12:04.524 07/10/1995,0.160,0.548
12:12:04.526 07/10/1995,0.148,0.548
12:12:04.528 07/10/1995,0.131,0.508
12:12:04.530 07/10/1995,0.114,0.508
12:12:04.532 07/10/1995,0.100,0.508
12:12:04.534 07/10/1995,0.086,0.508
12:12:04.536 07/10/1995,0.079,0.466
12:12:04.538 07/10/1995,0.072,0.466
12:12:04.540 07/10/1995,0.071,0.466
12:12:04.542 07/10/1995,0.069,0.466
12:12:04.544 07/10/1995,0.066,0.425
12:12:04.546 07/10/1995,0.063,0.425
12:12:04.548 07/10/1995,0.055,0.425
12:12:04.550 07/10/1995,0.048,0.425
12:12:04.552 07/10/1995,0.035,0.378
12:12:04.554 07/10/1995,0.022,0.378
12:12:04.556 07/10/1995,0.008,0.378
12:12:04.558 07/10/1995,-0.006,0.378
12:12:04.560 07/10/1995,-0.021,0.337
12:12:04.562 07/10/1995,-0.035,0.337
12:12:04.564 07/10/1995,-0.048,0.337
12:12:04.566 07/10/1995,-0.060,0.337
12:12:04.568 07/10/1995,-0.070,0.292
12:12:04.570 07/10/1995,-0.080,0.292
12:12:04.572 07/10/1995,-0.087,0.292
12:12:04.574 07/10/1995,-0.094,0.292
12:12:04.576 07/10/1995,-0.099,0.244
12:12:04.578 07/10/1995,-0.105,0.244
12:12:04.580 07/10/1995,-0.108,0.244
12:12:04.582 07/10/1995,-0.111,0.244
12:12:04.584 07/10/1995,-0.112,0.199
12:12:04.586 07/10/1995,-0.112,0.199
12:12:04.588 07/10/1995,-0.114,0.199
12:12:04.590 07/10/1995,-0.116,0.199
12:12:04.592 07/10/1995,-0.117,0.153
12:12:04.594 07/10/1995,-0.118,0.153
12:12:04.596 07/10/1995,-0.119,0.153
12:12:04.598 07/10/1995,-0.120,0.153
12:12:04.600 07/10/1995,-0.119,0.108
12:12:04.602 07/10/1995,-0.119,0.108
12:12:04.604 07/10/1995,-0.119,0.108
12:12:04.606 07/10/1995,-0.119,0.108
12:12:04.608 07/10/1995,-0.119,0.066
12:12:04.610 07/10/1995,-0.120,0.066
12:12:04.612 07/10/1995,-0.121,0.066
12:12:04.614 07/10/1995,-0.122,0.066
12:12:04.616 07/10/1995,-0.123,0.025
12:12:04.618 07/10/1995,-0.123,0.025
12:12:04.620 07/10/1995,-0.123,0.025
12:12:04.622 07/10/1995,-0.123,0.025
12:12:04.624 07/10/1995,-0.123,-0.013
12:12:04.626 07/10/1995,-0.122,-0.013
12:12:04.628 07/10/1995,-0.120,-0.013
12:12:04.630 07/10/1995,-0.119,-0.013
12:12:04.632 07/10/1995,-0.117,-0.048
12:12:04.634 07/10/1995,-0.114,-0.048
12:12:04.636 07/10/1995,-0.114,-0.048
12:12:04.638 07/10/1995,-0.113,-0.048
12:12:04.640 07/10/1995,-0.112,-0.078
12:12:04.642 07/10/1995,-0.110,-0.078
12:12:04.644 07/10/1995,-0.109,-0.078
12:12:04.646 07/10/1995,-0.107,-0.078
12:12:04.648 07/10/1995,-0.106,-0.101
12:12:04.650 07/10/1995,-0.106,-0.101
12:12:04.652 07/10/1995,-0.105,-0.101
12:12:04.654 07/10/1995,-0.104,-0.101
12:12:04.656 07/10/1995,-0.103,-0.126
12:12:04.658 07/10/1995,-0.103,-0.126
12:12:04.660 07/10/1995,-0.101,-0.126
12:12:04.662 07/10/1995,-0.099,-0.126
12:12:04.664 07/10/1995,-0.091,-0.141
12:12:04.666 07/10/1995,-0.083,-0.141
12:12:04.668 07/10/1995,-0.058,-0.141
12:12:04.670 07/10/1995,-0.032,-0.141
12:12:04.672 07/10/1995,0.019,-0.156
12:12:04.674 07/10/1995,0.070,-0.156
12:12:04.676 07/10/1995,0.148,-0.156
12:12:04.678 07/10/1995,0.226,-0.156
12:12:04.680 07/10/1995,0.319,-0.169
12:12:04.682 07/10/1995,0.413,-0.169
12:12:04.684 07/10/1995,0.501,-0.169
12:12:04.686 07/10/1995,0.589,-0.169
12:12:04.688 07/10/1995,0.645,-0.178
12:12:04.690 07/10/1995,0.701,-0.178
12:12:04.692 07/10/1995,0.709,-0.178
12:12:04.694 07/10/1995,0.717,-0.178
12:12:04.696 07/10/1995,0.679,-0.189
12:12:04.698 07/10/1995,0.640,-0.189
12:12:04.700 07/10/1995,0.573,-0.189
12:12:04.702 07/10/1995,0.506,-0.189
12:12:04.704 07/10/1995,0.434,-0.220
12:12:04.706 07/10/1995,0.361,-0.220
12:12:04.708 07/10/1995,0.303,-0.220
12:12:04.710 07/10/1995,0.245,-0.220
12:12:04.712 07/10/1995,0.212,-0.227
12:12:04.714 07/10/1995,0.179,-0.227
12:12:04.716 07/10/1995,0.170,-0.227
12:12:04.718 07/10/1995,0.161,-0.227
12:12:04.720 07/10/1995,0.168,-0.234
12:12:04.722 07/10/1995,0.175,-0.234
12:12:04.724 07/10/1995,0.187,-0.234
12:12:04.726 07/10/1995,0.200,-0.234
12:12:04.728 07/10/1995,0.210,-0.242
12:12:04.730 07/10/1995,0.219,-0.242
12:12:04.732 07/10/1995,0.224,-0.242
12:12:04.734 07/10/1995,0.229,-0.242
12:12:04.736 07/10/1995,0.235,-0.252
12:12:04.738 07/10/1995,0.241,-0.252
12:12:04.740 07/10/1995,0.251,-0.252
12:12:04.742 07/10/1995,0.261,-0.252
12:12:04.744 07/10/1995,0.271,-0.262
12:12:04.746 07/10/1995,0.280,-0.262
12:12:04.748 07/10/1995,0.280,-0.262
12:12:04.750 07/10/1995,0.281,-0.262
12:12:04.752 07/10/1995,0.267,-0.272
12:12:04.754 07/10/1995,0.254,-0.272
12:12:04.756 07/10/1995,0.227,-0.272
12:12:04.758 07/10/1995,0.201,-0.272
12:12:04.760 07/10/1995,0.167,-0.282
12:12:04.762 07/10/1995,0.134,-0.282
12:12:04.764 07/10/1995,0.102,-0.282
12:12:04.766 07/10/1995,0.069,-0.282
12:12:04.768 07/10/1995,0.043,-0.294
12:12:04.770 07/10/1995,0.017,-0.294
12:12:04.772 07/10/1995,-0.001,-0.294
12:12:04.774 07/10/1995,-0.019,-0.294
12:12:04.776 07/10/1995,-0.032,-0.307
12:12:04.778 07/10/1995,-0.044,-0.307
12:12:04.780 07/10/1995,-0.051,-0.307
12:12:04.782 07/10/1995,-0.058,-0.307
12:12:04.784 07/10/1995,-0.060,-0.322
12:12:04.786 07/10/1995,-0.063,-0.322
12:12:04.788 07/10/1995,-0.062,-0.322
12:12:04.790 07/10/1995,-0.062,-0.322
12:12:04.792 07/10/1995,-0.060,-0.334
12:12:04.794 07/10/1995,-0.058,-0.334
12:12:04.796 07/10/1995,-0.057,-0.334
12:12:04.798 07/10/1995,-0.056,-0.334
12:12:04.800 07/10/1995,-0.056,-0.346
12:12:04.802 07/10/1995,-0.055,-0.346
12:12:04.804 07/10/1995,-0.056,-0.346
12:12:04.806 07/10/1995,-0.056,-0.346
12:12:04.808 07/10/1995,-0.057,-0.356
12:12:04.810 07/10/1995,-0.058,-0.356
12:12:04.812 07/10/1995,-0.058,-0.356
12:12:04.814 07/10/1995,-0.057,-0.356
12:12:04.816 07/10/1995,-0.057,-0.371
12:12:04.818 07/10/1995,-0.057,-0.371
12:12:04.820 07/10/1995,-0.057,-0.371
12:12:04.822 07/10/1995,-0.056,-0.371
12:12:04.824 07/10/1995,-0.056,-0.389
12:12:04.826 07/10/1995,-0.055,-0.389
12:12:04.828 07/10/1995,-0.055,-0.389
12:12:04.830 07/10/1995,-0.055,-0.389
12:12:04.832 07/10/1995,-0.055,-0.399
12:12:04.834 07/10/1995,-0.055,-0.399
12:12:04.836 07/10/1995,-0.054,-0.399
12:12:04.838 07/10/1995,-0.053,-0.399
12:12:04.840 07/10/1995,-0.051,-0.411
12:12:04.842 07/10/1995,-0.050,-0.411
12:12:04.844 07/10/1995,-0.046,-0.411
12:12:04.846 07/10/1995,-0.042,-0.411
12:12:04.848 07/10/1995,-0.038,-0.429
12:12:04.850 07/10/1995,-0.035,-0.429
12:12:04.852 07/10/1995,-0.031,-0.429
12:12:04.854 07/10/1995,-0.027,-0.429
12:12:04.856 07/10/1995,-0.023,-0.442
12:12:04.858 07/10/1995,-0.018,-0.442
12:12:04.860 07/10/1995,-0.015,-0.442
12:12:04.862 07/10/1995,-0.011,-0.442
12:12:04.864 07/10/1995,-0.008,-0.454
12:12:04.866 07/10/1995,-0.005,-0.454
12:12:04.868 07/10/1995,-0.002,-0.454
12:12:04.870 07/10/1995,0.001,-0.454
12:12:04.872 07/10/1995,0.005,-0.469
12:12:04.874 07/10/1995,0.010,-0.469
12:12:04.876 07/10/1995,0.013,-0.469
12:12:04.878 07/10/1995,0.017,-0.469
12:12:04.880 07/10/1995,0.021,-0.476
12:12:04.882 07/10/1995,0.024,-0.476
12:12:04.884 07/10/1995,0.028,-0.476
12:12:04.886 07/10/1995,0.031,-0.476
12:12:04.888 07/10/1995,0.036,-0.491
12:12:04.890 07/10/1995,0.040,-0.491
12:12:04.892 07/10/1995,0.044,-0.491
12:12:04.894 07/10/1995,0.049,-0.491
12:12:04.896 07/10/1995,0.052,-0.503
12:12:04.898 07/10/1995,0.056,-0.503
12:12:04.900 07/10/1995,0.058,-0.503
12:12:04.902 07/10/1995,0.059,-0.503
12:12:04.904 07/10/1995,0.059,-0.516
12:12:04.906 07/10/1995,0.059,-0.516
12:12:04.908 07/10/1995,0.059,-0.516
12:12:04.910 07/10/1995,0.059,-0.516
12:12:04.912 07/10/1995,0.059,-0.523
12:12:04.914 07/10/1995,0.058,-0.523
12:12:04.916 07/10/1995,0.057,-0.523
12:12:04.918 07/10/1995,0.055,-0.523
12:12:04.920 07/10/1995,0.052,-0.533
12:12:04.922 07/10/1995,0.050,-0.533
12:12:04.924 07/10/1995,0.048,-0.533
12:12:04.926 07/10/1995,0.045,-0.533
12:12:04.928 07/10/1995,0.041,-0.541
12:12:04.930 07/10/1995,0.037,-0.541
12:12:04.932 07/10/1995,0.031,-0.541
12:12:04.934 07/10/1995,0.025,-0.541
12:12:04.936 07/10/1995,0.019,-0.543
12:12:04.938 07/10/1995,0.014,-0.543
12:12:04.940 07/10/1995,0.008,-0.543
12:12:04.942 07/10/1995,0.002,-0.543
12:12:04.944 07/10/1995,-0.006,-0.536
12:12:04.946 07/10/1995,-0.014,-0.536
12:12:04.948 07/10/1995,-0.024,-0.536
12:12:04.950 07/10/1995,-0.033,-0.536
12:12:04.952 07/10/1995,-0.043,-0.521
12:12:04.954 07/10/1995,-0.052,-0.521
12:12:04.956 07/10/1995,-0.062,-0.521
12:12:04.958 07/10/1995,-0.072,-0.521
12:12:04.960 07/10/1995,-0.082,-0.488
12:12:04.962 07/10/1995,-0.092,-0.488
12:12:04.964 07/10/1995,-0.101,-0.488
12:12:04.966 07/10/1995,-0.110,-0.488
12:12:04.968 07/10/1995,-0.118,-0.442
12:12:04.970 07/10/1995,-0.125,-0.442
12:12:04.972 07/10/1995,-0.131,-0.442
12:12:04.974 07/10/1995,-0.136,-0.442
12:12:04.976 07/10/1995,-0.138,-0.379
12:12:04.978 07/10/1995,-0.139,-0.379
12:12:04.980 07/10/1995,-0.139,-0.379
12:12:04.982 07/10/1995,-0.138,-0.379
12:12:04.984 07/10/1995,-0.135,-0.297
12:12:04.986 07/10/1995,-0.132,-0.297
12:12:04.988 07/10/1995,-0.126,-0.297
12:12:04.990 07/10/1995,-0.121,-0.297
12:12:04.992 07/10/1995,-0.114,-0.207
12:12:04.994 07/10/1995,-0.108,-0.207
12:12:04.996 07/10/1995,-0.102,-0.207
12:12:04.998 07/10/1995,-0.096,-0.207
12:12:05.000 07/10/1995,-0.090,-0.102
12:12:05.002 07/10/1995,-0.084,-0.102
12:12:05.004 07/10/1995,-0.078,-0.102
12:12:05.006 07/10/1995,-0.072,-0.102
12:12:05.008 07/10/1995,-0.066,0.004
12:12:05.010 07/10/1995,-0.060,0.004
12:12:05.012 07/10/1995,-0.055,0.004
12:12:05.014 07/10/1995,-0.050,0.004
12:12:05.016 07/10/1995,-0.044,0.115
12:12:05.018 07/10/1995,-0.038,0.115
12:12:05.020 07/10/1995,-0.034,0.115
12:12:05.022 07/10/1995,-0.030,0.115
12:12:05.024 07/10/1995,-0.029,0.222
12:12:05.026 07/10/1995,-0.027,0.222
12:12:05.028 07/10/1995,-0.025,0.222
12:12:05.030 07/10/1995,-0.023,0.222
12:12:05.032 07/10/1995,-0.021,0.311
12:12:05.034 07/10/1995,-0.019,0.311
12:12:05.036 07/10/1995,-0.017,0.311
12:12:05.038 07/10/1995,-0.015,0.311
12:12:05.040 07/10/1995,-0.013,0.389
12:12:05.042 07/10/1995,-0.011,0.389
12:12:05.044 07/10/1995,-0.009,0.389
12:12:05.046 07/10/1995,-0.006,0.389
12:12:05.048 07/10/1995,-0.004,0.449
12:12:05.050 07/10/1995,-0.001,0.449
12:12:05.052 07/10/1995,0.000,0.449
12:12:05.054 07/10/1995,0.001,0.449
12:12:05.056 07/10/1995,0.003,0.495
12:12:05.058 07/10/1995,0.004,0.495
12:12:05.060 07/10/1995,0.006,0.495
12:12:05.062 07/10/1995,0.008,0.495
12:12:05.064 07/10/1995,0.010,0.520
12:12:05.066 07/10/1995,0.012,0.520
12:12:05.068 07/10/1995,0.012,0.520
12:12:05.070 07/10/1995,0.012,0.520
12:12:05.072 07/10/1995,0.011,0.530
12:12:05.074 07/10/1995,0.011,0.530
12:12:05.076 07/10/1995,0.010,0.530
12:12:05.078 07/10/1995,0.009,0.530
12:12:05.080 07/10/1995,0.008,0.533
12:12:05.082 07/10/1995,0.008,0.533
12:12:05.084 07/10/1995,0.010,0.533
12:12:05.086 07/10/1995,0.012,0.533
12:12:05.088 07/10/1995,0.015,0.523
12:12:05.090 07/10/1995,0.018,0.523
12:12:05.092 07/10/1995,0.024,0.523
12:12:05.094 07/10/1995,0.030,0.523
12:12:05.096 07/10/1995,0.039,0.503
12:12:05.098 07/10/1995,0.048,0.503
12:12:05.100 07/10/1995,0.059,0.503
12:12:05.102 07/10/1995,0.070,0.503
12:12:05.104 07/10/1995,0.081,0.478
12:12:05.106 07/10/1995,0.092,0.478
12:12:05.108 07/10/1995,0.100,0.478
12:12:05.110 07/10/1995,0.108,0.478
12:12:05.112 07/10/1995,0.113,0.449
12:12:05.114 07/10/1995,0.118,0.449
12:12:05.116 07/10/1995,0.123,0.449
12:12:05.118 07/10/1995,0.129,0.449
12:12:05.120 07/10/1995,0.135,0.418
12:12:05.122 07/10/1995,0.141,0.418
12:12:05.124 07/10/1995,0.149,0.418
12:12:05.126 07/10/1995,0.157,0.418
12:12:05.128 07/10/1995,0.162,0.384
12:12:05.130 07/10/1995,0.167,0.384
12:12:05.132 07/10/1995,0.165,0.384
12:12:05.134 07/10/1995,0.162,0.384
12:12:05.136 07/10/1995,0.151,0.346
12:12:05.138 07/10/1995,0.139,0.346
12:12:05.140 07/10/1995,0.122,0.346
12:12:05.142 07/10/1995,0.105,0.346
12:12:05.144 07/10/1995,0.089,0.311
12:12:05.146 07/10/1995,0.073,0.311
12:12:05.148 07/10/1995,0.064,0.311
12:12:05.150 07/10/1995,0.055,0.311
12:12:05.152 07/10/1995,0.051,0.277
12:12:05.154 07/10/1995,0.048,0.277
12:12:05.156 07/10/1995,0.044,0.277
12:12:05.158 07/10/1995,0.041,0.277
12:12:05.160 07/10/1995,0.036,0.236
12:12:05.162 07/10/1995,0.031,0.236
12:12:05.164 07/10/1995,0.024,0.236
12:12:05.166 07/10/1995,0.016,0.236
12:12:05.168 07/10/1995,0.005,0.194
12:12:05.170 07/10/1995,-0.005,0.194
12:12:05.172 07/10/1995,-0.017,0.194
12:12:05.174 07/10/1995,-0.028,0.194
12:12:05.176 07/10/1995,-0.039,0.154
12:12:05.178 07/10/1995,-0.050,0.154
12:12:05.180 07/10/1995,-0.060,0.154
12:12:05.182 07/10/1995,-0.070,0.154
12:12:05.184 07/10/1995,-0.079,0.110
12:12:05.186 07/10/1995,-0.087,0.110
12:12:05.188 07/10/1995,-0.094,0.110
12:12:05.190 07/10/1995,-0.102,0.110
12:12:05.192 07/10/1995,-0.107,0.067
12:12:05.194 07/10/1995,-0.112,0.067
12:12:05.196 07/10/1995,-0.116,0.067
12:12:05.198 07/10/1995,-0.120,0.067
12:12:05.200 07/10/1995,-0.122,0.022
12:12:05.202 07/10/1995,-0.124,0.022
12:12:05.204 07/10/1995,-0.126,0.022
12:12:05.206 07/10/1995,-0.127,0.022
12:12:05.208 07/10/1995,-0.129,-0.020
12:12:05.210 07/10/1995,-0.131,-0.020
12:12:05.212 07/10/1995,-0.131,-0.020
12:12:05.214 07/10/1995,-0.132,-0.020
12:12:05.216 07/10/1995,-0.131,-0.080
12:12:05.218 07/10/1995,-0.131,-0.080
12:12:05.220 07/10/1995,-0.130,-0.080
12:12:05.222 07/10/1995,-0.130,-0.080
12:12:05.224 07/10/1995,-0.129,-0.117
12:12:05.226 07/10/1995,-0.127,-0.117
12:12:05.228 07/10/1995,-0.127,-0.117
12:12:05.230 07/10/1995,-0.126,-0.117
12:12:05.232 07/10/1995,-0.126,-0.158
12:12:05.234 07/10/1995,-0.126,-0.158
12:12:05.236 07/10/1995,-0.126,-0.158
12:12:05.238 07/10/1995,-0.126,-0.158
12:12:05.240 07/10/1995,-0.126,-0.188
12:12:05.242 07/10/1995,-0.126,-0.188
12:12:05.244 07/10/1995,-0.126,-0.188
12:12:05.246 07/10/1995,-0.125,-0.188
12:12:05.248 07/10/1995,-0.124,-0.218
12:12:05.250 07/10/1995,-0.123,-0.218
12:12:05.252 07/10/1995,-0.122,-0.218
12:12:05.254 07/10/1995,-0.121,-0.218
12:12:05.256 07/10/1995,-0.120,-0.247
12:12:05.258 07/10/1995,-0.119,-0.247
12:12:05.260 07/10/1995,-0.116,-0.247
12:12:05.262 07/10/1995,-0.113,-0.247
12:12:05.264 07/10/1995,-0.111,-0.268
12:12:05.266 07/10/1995,-0.109,-0.268
12:12:05.268 07/10/1995,-0.106,-0.268
12:12:05.270 07/10/1995,-0.104,-0.268
12:12:05.272 07/10/1995,-0.102,-0.287
12:12:05.274 07/10/1995,-0.099,-0.287
12:12:05.276 07/10/1995,-0.091,-0.287
12:12:05.278 07/10/1995,-0.083,-0.287
12:12:05.280 07/10/1995,-0.060,-0.298
12:12:05.282 07/10/1995,-0.038,-0.298
12:12:05.284 07/10/1995,0.009,-0.298
12:12:05.286 07/10/1995,0.055,-0.298
12:12:05.288 07/10/1995,0.127,-0.310
12:12:05.290 07/10/1995,0.199,-0.310
12:12:05.292 07/10/1995,0.289,-0.310
12:12:05.294 07/10/1995,0.379,-0.310
12:12:05.296 07/10/1995,0.467,-0.320
12:12:05.298 07/10/1995,0.554,-0.320
12:12:05.300 07/10/1995,0.613,-0.320
12:12:05.302 07/10/1995,0.672,-0.320
12:12:05.304 07/10/1995,0.685,-0.325
12:12:05.306 07/10/1995,0.699,-0.325
12:12:05.308 07/10/1995,0.667,-0.325
12:12:05.310 07/10/1995,0.635,-0.325
12:12:05.312 07/10/1995,0.571,-0.332
12:12:05.314 07/10/1995,0.508,-0.332
12:12:05.316 07/10/1995,0.436,-0.332
12:12:05.318 07/10/1995,0.365,-0.332
12:12:05.320 07/10/1995,0.307,-0.339
12:12:05.322 07/10/1995,0.248,-0.339
12:12:05.324 07/10/1995,0.214,-0.339
12:12:05.326 07/10/1995,0.179,-0.339
12:12:05.328 07/10/1995,0.169,-0.341
12:12:05.330 07/10/1995,0.159,-0.341
12:12:05.332 07/10/1995,0.165,-0.341
12:12:05.334 07/10/1995,0.171,-0.341
12:12:05.336 07/10/1995,0.181,-0.350
12:12:05.338 07/10/1995,0.192,-0.350
12:12:05.340 07/10/1995,0.199,-0.350
12:12:05.342 07/10/1995,0.206,-0.350
12:12:05.344 07/10/1995,0.209,-0.355
12:12:05.346 07/10/1995,0.212,-0.355
12:12:05.348 07/10/1995,0.215,-0.355
12:12:05.350 07/10/1995,0.218,-0.355
12:12:05.352 07/10/1995,0.227,-0.359
12:12:05.354 07/10/1995,0.237,-0.359
12:12:05.356 07/10/1995,0.247,-0.359
12:12:05.358 07/10/1995,0.258,-0.359
12:12:05.360 07/10/1995,0.261,-0.367
12:12:05.362 07/10/1995,0.265,-0.367
12:12:05.364 07/10/1995,0.255,-0.367
12:12:05.366 07/10/1995,0.246,-0.367
12:12:05.368 07/10/1995,0.223,-0.376
12:12:05.370 07/10/1995,0.200,-0.376
12:12:05.372 07/10/1995,0.169,-0.376
12:12:05.374 07/10/1995,0.138,-0.376
12:12:05.376 07/10/1995,0.106,-0.381
12:12:05.378 07/10/1995,0.075,-0.381
12:12:05.380 07/10/1995,0.050,-0.381
12:12:05.382 07/10/1995,0.025,-0.381
12:12:05.384 07/10/1995,0.006,-0.391
12:12:05.386 07/10/1995,-0.012,-0.391
12:12:05.388 07/10/1995,-0.024,-0.391
12:12:05.390 07/10/1995,-0.037,-0.391
12:12:05.392 07/10/1995,-0.045,-0.398
12:12:05.394 07/10/1995,-0.053,-0.398
12:12:05.396 07/10/1995,-0.056,-0.398
12:12:05.398 07/10/1995,-0.058,-0.398
12:12:05.400 07/10/1995,-0.059,-0.407
12:12:05.402 07/10/1995,-0.059,-0.407
12:12:05.404 07/10/1995,-0.059,-0.407
12:12:05.406 07/10/1995,-0.059,-0.407
12:12:05.408 07/10/1995,-0.059,-0.416
12:12:05.410 07/10/1995,-0.058,-0.416
12:12:05.412 07/10/1995,-0.057,-0.416
12:12:05.414 07/10/1995,-0.056,-0.416
12:12:05.416 07/10/1995,-0.056,-0.425
12:12:05.418 07/10/1995,-0.055,-0.425
12:12:05.420 07/10/1995,-0.056,-0.425
12:12:05.422 07/10/1995,-0.056,-0.425
12:12:05.424 07/10/1995,-0.058,-0.438
12:12:05.426 07/10/1995,-0.059,-0.438
12:12:05.428 07/10/1995,-0.060,-0.438
12:12:05.430 07/10/1995,-0.060,-0.438
12:12:05.432 07/10/1995,-0.062,-0.445
12:12:05.434 07/10/1995,-0.064,-0.445
12:12:05.436 07/10/1995,-0.064,-0.445
12:12:05.438 07/10/1995,-0.064,-0.445
12:12:05.440 07/10/1995,-0.064,-0.459
12:12:05.442 07/10/1995,-0.065,-0.459
12:12:05.444 07/10/1995,-0.066,-0.459
12:12:05.446 07/10/1995,-0.067,-0.459
12:12:05.448 07/10/1995,-0.067,-0.468
12:12:05.450 07/10/1995,-0.067,-0.468
12:12:05.452 07/10/1995,-0.065,-0.468
12:12:05.454 07/10/1995,-0.064,-0.468
12:12:05.456 07/10/1995,-0.061,-0.477
12:12:05.458 07/10/1995,-0.058,-0.477
12:12:05.460 07/10/1995,-0.056,-0.477
12:12:05.462 07/10/1995,-0.054,-0.477
12:12:05.464 07/10/1995,-0.050,-0.489
12:12:05.466 07/10/1995,-0.046,-0.489
12:12:05.468 07/10/1995,-0.042,-0.489
12:12:05.470 07/10/1995,-0.038,-0.489
12:12:05.472 07/10/1995,-0.034,-0.501
12:12:05.474 07/10/1995,-0.030,-0.501
12:12:05.476 07/10/1995,-0.026,-0.501
12:12:05.478 07/10/1995,-0.023,-0.501
12:12:05.480 07/10/1995,-0.018,-0.512
12:12:05.482 07/10/1995,-0.014,-0.512
12:12:05.484 07/10/1995,-0.010,-0.512
12:12:05.486 07/10/1995,-0.005,-0.512
12:12:05.488 07/10/1995,-0.001,-0.524
12:12:05.490 07/10/1995,0.004,-0.524
12:12:05.492 07/10/1995,0.009,-0.524
12:12:05.494 07/10/1995,0.013,-0.524
12:12:05.496 07/10/1995,0.016,-0.533
12:12:05.498 07/10/1995,0.018,-0.533
12:12:05.500 07/10/1995,0.021,-0.533
12:12:05.502 07/10/1995,0.024,-0.533
12:12:05.504 07/10/1995,0.026,-0.548
12:12:05.506 07/10/1995,0.029,-0.548
12:12:05.508 07/10/1995,0.032,-0.548
12:12:05.510 07/10/1995,0.036,-0.548
12:12:05.512 07/10/1995,0.038,-0.557
12:12:05.514 07/10/1995,0.041,-0.557
12:12:05.516 07/10/1995,0.043,-0.557
12:12:05.518 07/10/1995,0.044,-0.557
12:12:05.520 07/10/1995,0.045,-0.567
12:12:05.522 07/10/1995,0.046,-0.567
12:12:05.524 07/10/1995,0.048,-0.567
12:12:05.526 07/10/1995,0.049,-0.567
12:12:05.528 07/10/1995,0.049,-0.579
12:12:05.530 07/10/1995,0.050,-0.579
12:12:05.532 07/10/1995,0.048,-0.579
12:12:05.534 07/10/1995,0.046,-0.579
12:12:05.536 07/10/1995,0.044,-0.586
12:12:05.538 07/10/1995,0.041,-0.586
12:12:05.540 07/10/1995,0.037,-0.586
12:12:05.542 07/10/1995,0.032,-0.586
12:12:05.544 07/10/1995,0.027,-0.590
12:12:05.546 07/10/1995,0.022,-0.590
12:12:05.548 07/10/1995,0.015,-0.590
12:12:05.550 07/10/1995,0.008,-0.590
12:12:05.552 07/10/1995,0.000,-0.590
12:12:05.554 07/10/1995,-0.008,-0.590
12:12:05.556 07/10/1995,-0.016,-0.590
12:12:05.558 07/10/1995,-0.025,-0.590
12:12:05.560 07/10/1995,-0.035,-0.583
12:12:05.562 07/10/1995,-0.044,-0.583
12:12:05.564 07/10/1995,-0.055,-0.583
12:12:05.566 07/10/1995,-0.066,-0.583
12:12:05.568 07/10/1995,-0.076,-0.565
12:12:05.570 07/10/1995,-0.086,-0.565
12:12:05.572 07/10/1995,-0.096,-0.565
12:12:05.574 07/10/1995,-0.105,-0.565
12:12:05.576 07/10/1995,-0.112,-0.531
12:12:05.578 07/10/1995,-0.120,-0.531
12:12:05.580 07/10/1995,-0.125,-0.531
12:12:05.582 07/10/1995,-0.131,-0.531
12:12:05.584 07/10/1995,-0.135,-0.482
12:12:05.586 07/10/1995,-0.139,-0.482
12:12:05.588 07/10/1995,-0.141,-0.482
12:12:05.590 07/10/1995,-0.143,-0.482
12:12:05.592 07/10/1995,-0.143,-0.421
12:12:05.594 07/10/1995,-0.143,-0.421
12:12:05.596 07/10/1995,-0.141,-0.421
12:12:05.598 07/10/1995,-0.139,-0.421
12:12:05.600 07/10/1995,-0.135,-0.344
12:12:05.602 07/10/1995,-0.131,-0.344
12:12:05.604 07/10/1995,-0.125,-0.344
12:12:05.606 07/10/1995,-0.120,-0.344
12:12:05.608 07/10/1995,-0.114,-0.257
12:12:05.610 07/10/1995,-0.108,-0.257
12:12:05.612 07/10/1995,-0.103,-0.257
12:12:05.614 07/10/1995,-0.097,-0.257
12:12:05.616 07/10/1995,-0.091,-0.155
12:12:05.618 07/10/1995,-0.085,-0.155
12:12:05.620 07/10/1995,-0.080,-0.155
12:12:05.622 07/10/1995,-0.076,-0.155
12:12:05.624 07/10/1995,-0.071,-0.054
12:12:05.626 07/10/1995,-0.067,-0.054
12:12:05.628 07/10/1995,-0.062,-0.054
12:12:05.630 07/10/1995,-0.056,-0.054
12:12:05.632 07/10/1995,-0.051,0.044
12:12:05.634 07/10/1995,-0.046,0.044
12:12:05.636 07/10/1995,-0.043,0.044
12:12:05.638 07/10/1995,-0.039,0.044
12:12:05.640 07/10/1995,-0.036,0.137
12:12:05.642 07/10/1995,-0.033,0.137
12:12:05.644 07/10/1995,-0.030,0.137
12:12:05.646 07/10/1995,-0.027,0.137
12:12:05.648 07/10/1995,-0.025,0.216
12:12:05.650 07/10/1995,-0.023,0.216
12:12:05.652 07/10/1995,-0.021,0.216
12:12:05.654 07/10/1995,-0.019,0.216
12:12:05.656 07/10/1995,-0.018,0.280
12:12:05.658 07/10/1995,-0.016,0.280
12:12:05.660 07/10/1995,-0.016,0.280
12:12:05.662 07/10/1995,-0.015,0.280
12:12:05.664 07/10/1995,-0.016,0.327
12:12:05.666 07/10/1995,-0.016,0.327
12:12:05.668 07/10/1995,-0.016,0.327
12:12:05.670 07/10/1995,-0.016,0.327
12:12:05.672 07/10/1995,-0.016,0.357
12:12:05.674 07/10/1995,-0.016,0.357
12:12:05.676 07/10/1995,-0.016,0.357
12:12:05.678 07/10/1995,-0.016,0.357
12:12:05.680 07/10/1995,-0.016,0.374
12:12:05.682 07/10/1995,-0.016,0.374
12:12:05.684 07/10/1995,-0.016,0.374
12:12:05.686 07/10/1995,-0.015,0.374
12:12:05.688 07/10/1995,-0.014,0.371
12:12:05.690 07/10/1995,-0.013,0.371
12:12:05.692 07/10/1995,-0.012,0.371
12:12:05.694 07/10/1995,-0.011,0.371
12:12:05.696 07/10/1995,-0.009,0.364
12:12:05.698 07/10/1995,-0.008,0.364
12:12:05.700 07/10/1995,-0.004,0.364
12:12:05.702 07/10/1995,0.000,0.364
12:12:05.704 07/10/1995,0.006,0.345
12:12:05.706 07/10/1995,0.013,0.345
12:12:05.708 07/10/1995,0.023,0.345
12:12:05.710 07/10/1995,0.032,0.345
12:12:05.712 07/10/1995,0.042,0.320
12:12:05.714 07/10/1995,0.052,0.320
12:12:05.716 07/10/1995,0.062,0.320
12:12:05.718 07/10/1995,0.071,0.320
12:12:05.720 07/10/1995,0.080,0.284
12:12:05.722 07/10/1995,0.089,0.284
12:12:05.724 07/10/1995,0.093,0.284
12:12:05.726 07/10/1995,0.097,0.284
12:12:05.728 07/10/1995,0.102,0.252
12:12:05.730 07/10/1995,0.106,0.252
12:12:05.732 07/10/1995,0.113,0.252
12:12:05.734 07/10/1995,0.121,0.252
12:12:05.736 07/10/1995,0.129,0.216
12:12:05.738 07/10/1995,0.136,0.216
12:12:05.740 07/10/1995,0.141,0.216
12:12:05.742 07/10/1995,0.146,0.216
12:12:05.744 07/10/1995,0.144,0.181
12:12:05.746 07/10/1995,0.141,0.181
12:12:05.748 07/10/1995,0.132,0.181
12:12:05.750 07/10/1995,0.122,0.181
12:12:05.752 07/10/1995,0.107,0.145
12:12:05.754 07/10/1995,0.093,0.145
12:12:05.756 07/10/1995,0.080,0.145
12:12:05.758 07/10/1995,0.067,0.145
12:12:05.760 07/10/1995,0.060,0.111
12:12:05.762 07/10/1995,0.053,0.111
12:12:05.764 07/10/1995,0.050,0.111
12:12:05.766 07/10/1995,0.048,0.111
12:12:05.768 07/10/1995,0.044,0.077
12:12:05.770 07/10/1995,0.041,0.077
12:12:05.772 07/10/1995,0.035,0.077
12:12:05.774 07/10/1995,0.029,0.077
12:12:05.776 07/10/1995,0.018,0.044
12:12:05.778 07/10/1995,0.008,0.044
12:12:05.780 07/10/1995,-0.005,0.044
12:12:05.782 07/10/1995,-0.018,0.044
12:12:05.784 07/10/1995,-0.032,0.009
12:12:05.786 07/10/1995,-0.045,0.009
12:12:05.788 07/10/1995,-0.059,0.009
12:12:05.790 07/10/1995,-0.072,0.009
12:12:05.792 07/10/1995,-0.084,-0.021
12:12:05.794 07/10/1995,-0.095,-0.021
12:12:05.796 07/10/1995,-0.103,-0.021
12:12:05.798 07/10/1995,-0.111,-0.021
12:12:05.800 07/10/1995,-0.116,-0.054
12:12:05.802 07/10/1995,-0.121,-0.054
12:12:05.804 07/10/1995,-0.125,-0.054
12:12:05.806 07/10/1995,-0.129,-0.054
12:12:05.808 07/10/1995,-0.130,-0.085
12:12:05.810 07/10/1995,-0.132,-0.085
12:12:05.812 07/10/1995,-0.133,-0.085
12:12:05.814 07/10/1995,-0.135,-0.085
12:12:05.816 07/10/1995,-0.134,-0.117
12:12:05.818 07/10/1995,-0.134,-0.117
12:12:05.820 07/10/1995,-0.133,-0.117
12:12:05.822 07/10/1995,-0.132,-0.117
12:12:05.824 07/10/1995,-0.131,-0.146
12:12:05.826 07/10/1995,-0.130,-0.146
12:12:05.828 07/10/1995,-0.131,-0.146
12:12:05.830 07/10/1995,-0.133,-0.146
12:12:05.832 07/10/1995,-0.135,-0.176
12:12:05.834 07/10/1995,-0.137,-0.176
12:12:05.836 07/10/1995,-0.139,-0.176
12:12:05.838 07/10/1995,-0.140,-0.176
12:12:05.840 07/10/1995,-0.141,-0.207
12:12:05.842 07/10/1995,-0.143,-0.207
12:12:05.844 07/10/1995,-0.143,-0.207
12:12:05.846 07/10/1995,-0.143,-0.207
12:12:05.848 07/10/1995,-0.142,-0.235
12:12:05.850 07/10/1995,-0.141,-0.235
12:12:05.852 07/10/1995,-0.139,-0.235
12:12:05.854 07/10/1995,-0.137,-0.235
12:12:05.856 07/10/1995,-0.133,-0.259
12:12:05.858 07/10/1995,-0.130,-0.259
12:12:05.860 07/10/1995,-0.126,-0.259
12:12:05.862 07/10/1995,-0.123,-0.259
12:12:05.864 07/10/1995,-0.122,-0.284
12:12:05.866 07/10/1995,-0.121,-0.284
12:12:05.868 07/10/1995,-0.122,-0.284
12:12:05.870 07/10/1995,-0.123,-0.284
12:12:05.872 07/10/1995,-0.123,-0.303
12:12:05.874 07/10/1995,-0.123,-0.303
12:12:05.876 07/10/1995,-0.124,-0.303
12:12:05.878 07/10/1995,-0.124,-0.303
12:12:05.880 07/10/1995,-0.125,-0.322
12:12:05.882 07/10/1995,-0.126,-0.322
12:12:05.884 07/10/1995,-0.125,-0.322
12:12:05.886 07/10/1995,-0.124,-0.322
12:12:05.888 07/10/1995,-0.116,-0.337
12:12:05.890 07/10/1995,-0.108,-0.337
12:12:05.892 07/10/1995,-0.087,-0.337
12:12:05.894 07/10/1995,-0.067,-0.337
12:12:05.896 07/10/1995,-0.024,-0.346
12:12:05.898 07/10/1995,0.018,-0.346
12:12:05.900 07/10/1995,0.086,-0.346
12:12:05.902 07/10/1995,0.154,-0.346
12:12:05.904 07/10/1995,0.243,-0.355
12:12:05.906 07/10/1995,0.332,-0.355
12:12:05.908 07/10/1995,0.420,-0.355
12:12:05.910 07/10/1995,0.508,-0.355
12:12:05.912 07/10/1995,0.569,-0.362
12:12:05.914 07/10/1995,0.630,-0.362
12:12:05.916 07/10/1995,0.647,-0.362
12:12:05.918 07/10/1995,0.665,-0.362
12:12:05.920 07/10/1995,0.638,-0.367
12:12:05.922 07/10/1995,0.610,-0.367
12:12:05.924 07/10/1995,0.551,-0.367
12:12:05.926 07/10/1995,0.492,-0.367
12:12:05.928 07/10/1995,0.424,-0.369
12:12:05.930 07/10/1995,0.356,-0.369
12:12:05.932 07/10/1995,0.300,-0.369
12:12:05.934 07/10/1995,0.244,-0.369
12:12:05.936 07/10/1995,0.210,-0.377
12:12:05.938 07/10/1995,0.176,-0.377
12:12:05.940 07/10/1995,0.164,-0.377
12:12:05.942 07/10/1995,0.152,-0.377
12:12:05.944 07/10/1995,0.156,-0.379
12:12:05.946 07/10/1995,0.159,-0.379
12:12:05.948 07/10/1995,0.167,-0.379
12:12:05.950 07/10/1995,0.175,-0.379
12:12:05.952 07/10/1995,0.181,-0.384
12:12:05.954 07/10/1995,0.188,-0.384
12:12:05.956 07/10/1995,0.191,-0.384
12:12:05.958 07/10/1995,0.194,-0.384
12:12:05.960 07/10/1995,0.199,-0.388
12:12:05.962 07/10/1995,0.203,-0.388
12:12:05.964 07/10/1995,0.212,-0.388
12:12:05.966 07/10/1995,0.221,-0.388
12:12:05.968 07/10/1995,0.234,-0.393
12:12:05.970 07/10/1995,0.246,-0.393
12:12:05.972 07/10/1995,0.253,-0.393
12:12:05.974 07/10/1995,0.259,-0.393
12:12:05.976 07/10/1995,0.252,-0.398
12:12:05.978 07/10/1995,0.245,-0.398
12:12:05.980 07/10/1995,0.224,-0.398
12:12:05.982 07/10/1995,0.202,-0.398
12:12:05.984 07/10/1995,0.170,-0.405
12:12:05.986 07/10/1995,0.137,-0.405
12:12:05.988 07/10/1995,0.103,-0.405
12:12:05.990 07/10/1995,0.069,-0.405
12:12:05.992 07/10/1995,0.042,-0.409
12:12:05.994 07/10/1995,0.014,-0.409
12:12:05.996 07/10/1995,-0.005,-0.409
12:12:05.998 07/10/1995,-0.025,-0.409
12:12:06.000 07/10/1995,-0.039,-0.416
12:12:06.002 07/10/1995,-0.053,-0.416
12:12:06.004 07/10/1995,-0.062,-0.416
12:12:06.006 07/10/1995,-0.071,-0.416
12:12:06.008 07/10/1995,-0.076,-0.423
12:12:06.010 07/10/1995,-0.080,-0.423
12:12:06.012 07/10/1995,-0.080,-0.423
12:12:06.014 07/10/1995,-0.081,-0.423
12:12:06.016 07/10/1995,-0.079,-0.433
12:12:06.018 07/10/1995,-0.078,-0.433
12:12:06.020 07/10/1995,-0.077,-0.433
12:12:06.022 07/10/1995,-0.076,-0.433
12:12:06.024 07/10/1995,-0.075,-0.442
12:12:06.026 07/10/1995,-0.075,-0.442
12:12:06.028 07/10/1995,-0.075,-0.442
12:12:06.030 07/10/1995,-0.076,-0.442
12:12:06.032 07/10/1995,-0.076,-0.452
12:12:06.034 07/10/1995,-0.076,-0.452
12:12:06.036 07/10/1995,-0.075,-0.452
12:12:06.038 07/10/1995,-0.075,-0.452
12:12:06.040 07/10/1995,-0.073,-0.457
12:12:06.042 07/10/1995,-0.071,-0.457
12:12:06.044 07/10/1995,-0.070,-0.457
12:12:06.046 07/10/1995,-0.068,-0.457
12:12:06.048 07/10/1995,-0.067,-0.468
12:12:06.050 07/10/1995,-0.067,-0.468
12:12:06.052 07/10/1995,-0.067,-0.468
12:12:06.054 07/10/1995,-0.068,-0.468
12:12:06.056 07/10/1995,-0.068,-0.475
12:12:06.058 07/10/1995,-0.068,-0.475
12:12:06.060 07/10/1995,-0.068,-0.475
12:12:06.062 07/10/1995,-0.068,-0.475
12:12:06.064 07/10/1995,-0.067,-0.482
12:12:06.066 07/10/1995,-0.067,-0.482
12:12:06.068 07/10/1995,-0.065,-0.482
12:12:06.070 07/10/1995,-0.064,-0.482
12:12:06.072 07/10/1995,-0.060,-0.494
12:12:06.074 07/10/1995,-0.057,-0.494
12:12:06.076 07/10/1995,-0.054,-0.494
12:12:06.078 07/10/1995,-0.051,-0.494
12:12:06.080 07/10/1995,-0.046,-0.501
12:12:06.082 07/10/1995,-0.042,-0.501
12:12:06.084 07/10/1995,-0.038,-0.501
12:12:06.086 07/10/1995,-0.035,-0.501
12:12:06.088 07/10/1995,-0.031,-0.510
12:12:06.090 07/10/1995,-0.027,-0.510
12:12:06.092 07/10/1995,-0.023,-0.510
12:12:06.094 07/10/1995,-0.018,-0.510
12:12:06.096 07/10/1995,-0.014,-0.517
12:12:06.098 07/10/1995,-0.010,-0.517
12:12:06.100 07/10/1995,-0.005,-0.517
12:12:06.102 07/10/1995,-0.001,-0.517
12:12:06.104 07/10/1995,0.003,-0.529
12:12:06.106 07/10/1995,0.008,-0.529
12:12:06.108 07/10/1995,0.011,-0.529
12:12:06.110 07/10/1995,0.015,-0.529
12:12:06.112 07/10/1995,0.020,-0.536
12:12:06.114 07/10/1995,0.025,-0.536
12:12:06.116 07/10/1995,0.030,-0.536
12:12:06.118 07/10/1995,0.035,-0.536
12:12:06.120 07/10/1995,0.039,-0.545
12:12:06.122 07/10/1995,0.044,-0.545
12:12:06.124 07/10/1995,0.049,-0.545
12:12:06.126 07/10/1995,0.053,-0.545
12:12:06.128 07/10/1995,0.054,-0.555
12:12:06.130 07/10/1995,0.055,-0.555
12:12:06.132 07/10/1995,0.055,-0.555
12:12:06.134 07/10/1995,0.054,-0.555
12:12:06.136 07/10/1995,0.053,-0.562
12:12:06.138 07/10/1995,0.052,-0.562
12:12:06.140 07/10/1995,0.051,-0.562
12:12:06.142 07/10/1995,0.051,-0.562
12:12:06.144 07/10/1995,0.050,-0.572
12:12:06.146 07/10/1995,0.050,-0.572
12:12:06.148 07/10/1995,0.048,-0.572
12:12:06.150 07/10/1995,0.045,-0.572
12:12:06.152 07/10/1995,0.042,-0.579
12:12:06.154 07/10/1995,0.038,-0.579
12:12:06.156 07/10/1995,0.032,-0.579
12:12:06.158 07/10/1995,0.027,-0.579
12:12:06.160 07/10/1995,0.021,-0.579
12:12:06.162 07/10/1995,0.014,-0.579
12:12:06.164 07/10/1995,0.005,-0.579
12:12:06.166 07/10/1995,-0.003,-0.579
12:12:06.168 07/10/1995,-0.013,-0.579
12:12:06.170 07/10/1995,-0.023,-0.579
12:12:06.172 07/10/1995,-0.032,-0.579
12:12:06.174 07/10/1995,-0.042,-0.579
12:12:06.176 07/10/1995,-0.052,-0.565
12:12:06.178 07/10/1995,-0.063,-0.565
12:12:06.180 07/10/1995,-0.073,-0.565
12:12:06.182 07/10/1995,-0.084,-0.565
12:12:06.184 07/10/1995,-0.093,-0.538
12:12:06.186 07/10/1995,-0.103,-0.538
12:12:06.188 07/10/1995,-0.110,-0.538
12:12:06.190 07/10/1995,-0.118,-0.538
12:12:06.192 07/10/1995,-0.124,-0.505
12:12:06.194 07/10/1995,-0.131,-0.505
12:12:06.196 07/10/1995,-0.135,-0.505
12:12:06.198 07/10/1995,-0.139,-0.505
12:12:06.200 07/10/1995,-0.141,-0.449
12:12:06.202 07/10/1995,-0.143,-0.449
12:12:06.204 07/10/1995,-0.141,-0.449
12:12:06.206 07/10/1995,-0.140,-0.449
12:12:06.208 07/10/1995,-0.137,-0.384
12:12:06.210 07/10/1995,-0.134,-0.384
12:12:06.212 07/10/1995,-0.130,-0.384
12:12:06.214 07/10/1995,-0.125,-0.384
12:12:06.216 07/10/1995,-0.121,-0.303
12:12:06.218 07/10/1995,-0.117,-0.303
12:12:06.220 07/10/1995,-0.112,-0.303
12:12:06.222 07/10/1995,-0.108,-0.303
12:12:06.224 07/10/1995,-0.103,-0.211
12:12:06.226 07/10/1995,-0.098,-0.211
12:12:06.228 07/10/1995,-0.093,-0.211
12:12:06.230 07/10/1995,-0.087,-0.211
12:12:06.232 07/10/1995,-0.083,-0.113
12:12:06.234 07/10/1995,-0.078,-0.113
12:12:06.236 07/10/1995,-0.073,-0.113
12:12:06.238 07/10/1995,-0.069,-0.113
12:12:06.240 07/10/1995,-0.065,-0.014
12:12:06.242 07/10/1995,-0.062,-0.014
12:12:06.244 07/10/1995,-0.058,-0.014
12:12:06.246 07/10/1995,-0.054,-0.014
12:12:06.248 07/10/1995,-0.050,0.081
12:12:06.250 07/10/1995,-0.045,0.081
12:12:06.252 07/10/1995,-0.042,0.081
12:12:06.254 07/10/1995,-0.039,0.081
12:12:06.256 07/10/1995,-0.037,0.162
12:12:06.258 07/10/1995,-0.035,0.162
12:12:06.260 07/10/1995,-0.033,0.162
12:12:06.262 07/10/1995,-0.031,0.162
