,min,max,mean,med,std,label
0,-702.7249837183202,195.86241133845496,-117.33536398617257,77.91612496375346,365.3742231308678,
1,-376.5853491668307,-330.675307843388,-360.60471764798297,-370.5877156628886,18.675162845055837,
2,-239.8684711492344,-207.79983074135876,-218.99208883865325,-212.22743464678047,13.017577525734096,
3,-273.7241620668188,-92.37134769151513,-155.63563752902814,-116.99137383981939,73.64880857858566,
4,-667.2718507556397,123.62528453517797,-152.0053961958005,20.10801411059121,321.61544776937836,
5,-397.35809104531756,-257.8546294404913,-348.7775178352475,-379.0679904049883,56.73001972510823,
6,-319.1215141530889,-79.10120062429186,-162.71424015448906,-110.52098801117589,97.61196624955149,
7,-214.08009629458792,-127.49193296033462,-157.68178132491698,-139.45856238336458,35.14751919322863,
8,-193.6790534129322,-93.06380061120215,-128.132809413278,-106.47948034872849,40.88752523853839,
9,-660.5008481690238,257.9775107420082,-62.092602408935804,135.84924992103424,373.3033142798816,
10,-333.41719112582484,-326.7381557435809,-331.1332265848718,-332.24245654166765,2.701696649028499,
11,-483.2239882524951,75.68037491028451,-119.10939723487066,0.003587888084469526,227.00127034090022,
12,-449.8658709012318,-135.64623868681247,-245.1552169205455,-176.12253729737418,127.84942775475893,
13,-267.81721498698107,-230.8680832966186,-243.76139519396799,-236.04450598118308,14.991084615767068,
14,-216.4415279070285,-147.2993465686576,-171.40395722854956,-156.4987312812024,28.098623520545136,
15,-545.1695806987975,159.20268057049032,-86.25716450420035,66.29314792156885,286.36493092344307,
16,-287.09866341599394,-252.73428817001445,-275.15043414745844,-282.7321038961031,13.993735200561405,
17,-404.9971757916163,-20.781559497977295,-154.63228476913588,-72.05145683729916,156.13873443022553,
18,-229.98554300143317,-190.71438394960612,-204.40729579785523,-196.4073268143006,15.914278705173071,
19,-215.24542183149237,-110.90210474568924,-147.28514536476925,-124.7723827643394,42.40667137700614,
20,-540.6680880071663,108.80511876376586,-117.50848243578136,21.345959888029103,263.84406643848916,
21,-386.7609201609756,-206.3602449456319,-269.24263927548384,-229.59530075077177,73.45540937259892,
22,-246.15423006294685,-85.69131266809202,-141.62304658266447,-107.06482485244244,65.21135000413682,
23,-393.44496025560284,-16.359858350134346,-147.86907893671608,-67.62291280998532,153.1290779346877,
24,-621.1546519479501,-7.959995147570098,-221.65025085153542,-88.08174831113779,249.36661257491517,
25,-344.94619130576626,-292.32624422934913,-326.62560512562476,-338.1036197885348,21.4485896150767,
26,-217.33137558986306,-188.43952764049652,-198.53153482763207,-192.40315569723552,11.729026419010081,
27,-505.8149827027714,72.30526978740411,-129.15417214325683,-5.675085036511705,234.84365294979125,
28,-318.13912887783727,-237.71271990268627,-265.77247783322764,-248.3536256277863,32.7996185427145,
29,-215.98328661408078,-183.7119728285952,-194.97393707001098,-187.90972335779634,13.125630672001742,
30,-442.70723047005384,25.842558851420627,-137.46736136242353,-37.782665906774035,190.28620321821933,
31,-290.7058499682657,-214.34596446601657,-240.99657476603312,-224.51912877373718,31.151254173232193,
32,-241.49898606934738,-149.7181279717628,-181.71653834331227,-161.83833498726125,37.31088358748748,
33,-256.9900406460619,-193.9852301309267,-235.0840099284929,-248.69398101216564,25.625455004054974,
34,-202.50838984578314,-100.7683475882148,-136.2349921687084,-114.23932924731375,41.3548464278041,
35,-237.85974967241265,-60.432286573138214,-122.32165754130415,-84.46295790261613,72.06044578686029,
36,-544.555014304252,95.38895629932561,-127.65004532070778,12.455378743108852,260.3203020141121,
37,-279.1934122462769,-255.87522749341653,-271.0563052097417,-275.9573839740027,9.543581281586567,
38,-197.98112208141112,-149.8726007425136,-166.64554657288767,-156.4012054215957,19.53723138172644,
39,-209.92050466878555,-75.26308122327377,-122.19880792367327,-93.11047153631893,54.73363988753627,
40,-357.44259737025277,-6.688219866079518,-129.01791864848286,-54.535075264637435,142.41880555595534,
41,-503.2366380317532,-40.63967247904775,-201.85480931141464,-100.4133443159457,188.19617113996478,
42,-267.86209600741046,-251.11549892616264,-256.94688194451567,-253.4861995722971,6.794952131247786,
43,-230.32564566927084,-137.03370478222465,-169.55262689160864,-149.5578066779321,37.90359076582774,
44,-536.7125828702217,181.4676075346664,-68.79388340812743,86.67651750588942,291.97381368801547,
45,-300.59027011709327,-243.58407407236027,-263.48782916945544,-251.22304153688964,23.157481292521847,
46,-262.4883142076668,-148.01877817798345,-187.92042794385583,-163.3156477194279,46.51629935306258,
47,-276.98004542559323,-90.04400159689142,-155.24337752860868,-115.26248547273899,75.93364114322421,
48,-518.5787306636535,34.73456299478613,-158.1034073395132,-37.901402513768666,224.9786965783302,
49,-312.88669300248176,-239.25905477135802,-264.9215689678569,-249.27279966810798,29.902580823952132,
50,-234.063453961755,-175.93149758354596,-196.21057007125395,-183.7592155266464,23.615073472954005,
51,-224.23710987485723,-102.33123417091039,-144.83512065454525,-118.4095496790517,49.5592879659907,
52,-526.6263469596637,103.63232433190142,-115.97454769660457,18.961305563428226,256.06279889369097,
53,-356.5213426916484,-210.91250093382334,-261.68621263269023,-229.5812608130983,59.265712057766855,
54,-262.1751917934129,-179.8206054919391,-208.5575004953317,-190.73148887897622,33.4751184696431,
55,-274.5816538337917,-97.92413836256563,-159.50463753427653,-121.42014019096447,71.79715931514399,
56,-505.8017139140538,71.40626715995128,-129.7541099297939,-4.902403749403671,234.64403663445927,
57,-299.7758956681633,-242.7916677407415,-262.67187653022046,-250.36489031026161,23.158242495551857,
58,-269.35188050087226,-144.01302017470883,-187.71539368417004,-160.68814687097662,50.938007109979345,
59,-247.60783142281417,-102.53680470939925,-153.10840298126718,-121.74821264009623,58.96903187003374,
60,-542.3406366089836,116.16389712252241,-113.29969553649339,28.39283414174775,267.6146229465822,
61,-363.1343432245777,-208.14064759348332,-262.1931115798245,-228.00040709906318,63.080583462834575,
62,-267.6536703978204,-182.0825903946265,-211.93203714511728,-193.3910601122681,34.786728354012126,
63,-235.58261267413178,-124.88549485159055,-163.48134143304654,-139.72688741360474,44.975517819469665,
64,-430.7571752541038,28.553452837829504,-131.49852673219212,-33.145640216992845,186.60878317435206,
65,-313.8371562967933,-190.20668267999804,-233.3397152759449,-206.24430948107917,50.28509809299336,
66,-267.5803270875299,-157.84684414085157,-196.11375519531316,-172.40738931965456,44.59985688718958,
67,-249.356729865476,-108.29443733182792,-157.46965608960141,-127.05031004020672,57.331465880563044,
68,-485.3688418775421,80.62878354969331,-116.60185718667667,5.363102366251717,230.0420258484331,
69,-395.6930301857466,-144.97934742968675,-232.36680899925943,-177.66585129295805,101.96864076282478,
70,-291.1943279042948,-185.42718202288484,-222.29849110187214,-199.47365298907994,42.988098830779414,
71,-288.041169544491,-123.2340509834398,-180.716607519448,-145.63928055372645,66.92683303935428,
72,-424.69626318162483,-29.494505939972232,-167.22529919395024,-81.33100474783892,160.69515086548662,
73,-304.9137308923459,-171.07272570169096,-217.73871222750336,-189.16707412773303,54.36781293198721,
74,-250.66806229272962,-138.3286948470168,-177.49972459134403,-153.38261770317175,45.64613561663019,
75,-430.9373958967187,22.959796509535355,-135.22826113568337,-37.70063340914779,184.44603273016813,
76,-305.1234454023663,-185.84662074604051,-227.44141068251463,-201.26764981358457,48.521723733118776,
77,-254.93307947199582,-245.97361933905628,-249.13177815396804,-247.43606502073732,3.7088090963331015,
78,-203.3732160963454,-148.53682454630086,-167.65555498040098,-155.8157317132492,22.28795607178844,
79,-489.3494593159959,117.34519723101947,-94.06229820890252,36.62265284857133,246.57803196933955,
80,-275.10790554685803,-230.7897296039336,-246.2546551261814,-236.60231477364593,18.056917747996675,
81,-234.31098088242408,-143.91176862691609,-175.45722455659848,-156.323811240517,36.69658709781759,
82,-367.92642171782904,-13.37407090773936,-136.9414995514158,-59.10863834097623,144.25213471748327,
83,-244.34961597275094,-152.08695361478757,-184.26183648680856,-164.36610451433742,37.498306428854605,
84,-224.48315765052385,-101.72746756637345,-144.52928052931372,-118.19735742286184,49.87454027281921,
85,-479.90953147570883,80.9169039221244,-114.55575176195649,7.273462535483205,228.03387729626021,
86,-273.12804270214815,-229.51441256291227,-244.72497999517057,-235.39284939100497,17.716211621868624,
87,-232.1517799322542,-134.81256642988754,-168.73165562583526,-147.80532274375088,39.55619411632329,
88,-261.18600353252606,-95.91736870253392,-153.53155356974145,-117.82703030701282,67.17627736342035,
89,-554.8616182422282,107.23469004645308,-123.48830583112718,19.14013897321199,269.09220076173,
90,-401.0118008341741,-202.36462743069515,-271.6239310495856,-227.940113618468,80.82574717469868,
91,-276.5792884281842,-209.59649257905008,-232.9450664990936,-218.5470994315259,27.22073964258524,
92,-502.706849852851,51.17451945473458,-141.82360425683038,-22.643644386942423,225.1008255677417,
93,-276.56853644836224,-252.1184868392531,-260.6711206187486,-255.3599043247505,9.933873257189365,
94,-238.72508604327078,-153.22280741096273,-183.04666149640414,-164.69540920822658,34.73695885059797,
95,-376.36580669342135,-32.7465350156002,-152.53825929339172,-79.34157422500813,139.55262165969702,
96,-338.0170011973412,-146.91141094235368,-213.5463475750663,-171.4609901370201,77.78810470160496,
97,-273.31796947717766,-157.39829421393392,-197.79852431040445,-172.81619174667378,47.11280048562751,
98,-462.737690453443,11.235364938872651,-153.93118990246114,-52.6798299818565,192.5392849823018,
99,-333.7095603933127,-282.45286465673564,-300.35774701168486,-289.3867510603933,20.931155649967554,
100,-277.0043051636337,-172.1552618720271,-208.71751152258886,-186.14487069849957,42.60929203374717,
101,-342.4758930943956,-77.79292652340685,-170.08980544598893,-113.65258112948345,107.49701204998678,
102,-236.5618727807123,-207.48719943478608,-217.67439457752113,-211.5015992015218,11.862622235449015,
103,-269.01362383310027,-100.58764395171275,-159.31783050771182,-123.2559119590864,68.42162231038124,
104,-222.3917822387226,-129.31561168107356,-161.7567681644059,-141.7272190450172,37.823057873556984,
105,-465.1393383598862,50.45302413355735,-129.27537064722495,-19.371138476252774,209.41018777369896,
106,-523.0055841771677,-88.23321792923616,-239.75010881766949,-144.78412949865907,176.83827855897624,
107,-293.1630215739971,-272.643756626017,-279.8067324267048,-275.733973847395,8.303269069930202,
108,-518.0575965653234,40.874890778292546,-153.8874478253834,-33.45466868104197,227.1711374616723,
109,-295.3686006413137,-249.35069471176553,-279.3254884462742,-289.375256254334,18.760637700231563,
